# Pulseq sequence file
# Created by MATLAB mr toolbox

[VERSION]
major 1
minor 3
revision 0

[DEFINITIONS]
offsets_ppm -1560 -4 -3.75 -3.5 -3.25 -3 -2.75 -2.5 -2.25 -2 -1.75 -1.5 -1.25 -1 -0.75 -0.5 -0.25 0 0.25 0.5 0.75 1 1.25 1.5 1.75 2 2.25 2.5 2.75 3 3.25 3.5 3.75 4 
run_m0_scan 0 

# Format of blocks:
#  #  D RF  GX  GY  GZ ADC EXT
[BLOCKS]
   1  1  0   0   0   0  0  0
   2  0  1   0   0   0  0  0
   3  2  0   0   0   0  0  0
   4  0  1   0   0   0  0  0
   5  2  0   0   0   0  0  0
   6  0  1   0   0   0  0  0
   7  2  0   0   0   0  0  0
   8  0  1   0   0   0  0  0
   9  2  0   0   0   0  0  0
  10  0  1   0   0   0  0  0
  11  2  0   0   0   0  0  0
  12  0  1   0   0   0  0  0
  13  2  0   0   0   0  0  0
  14  0  1   0   0   0  0  0
  15  2  0   0   0   0  0  0
  16  0  1   0   0   0  0  0
  17  2  0   0   0   0  0  0
  18  0  1   0   0   0  0  0
  19  2  0   0   0   0  0  0
  20  0  1   0   0   0  0  0
  21  2  0   0   0   0  0  0
  22  0  1   0   0   0  0  0
  23  2  0   0   0   0  0  0
  24  0  1   0   0   0  0  0
  25  2  0   0   0   0  0  0
  26  0  1   0   0   0  0  0
  27  2  0   0   0   0  0  0
  28  0  1   0   0   0  0  0
  29  2  0   0   0   0  0  0
  30  0  1   0   0   0  0  0
  31  2  0   0   0   0  0  0
  32  0  1   0   0   0  0  0
  33  2  0   0   0   0  0  0
  34  0  1   0   0   0  0  0
  35  2  0   0   0   0  0  0
  36  0  1   0   0   0  0  0
  37  2  0   0   0   0  0  0
  38  0  1   0   0   0  0  0
  39  2  0   0   0   0  0  0
  40  0  1   0   0   0  0  0
  41  0  0   1   1   1  0  0
  42  0  0   0   0   0  1  0
  43  1  0   0   0   0  0  0
  44  0  2   0   0   0  0  0
  45  2  0   0   0   0  0  0
  46  0  2   0   0   0  0  0
  47  2  0   0   0   0  0  0
  48  0  2   0   0   0  0  0
  49  2  0   0   0   0  0  0
  50  0  2   0   0   0  0  0
  51  2  0   0   0   0  0  0
  52  0  2   0   0   0  0  0
  53  2  0   0   0   0  0  0
  54  0  2   0   0   0  0  0
  55  2  0   0   0   0  0  0
  56  0  2   0   0   0  0  0
  57  2  0   0   0   0  0  0
  58  0  2   0   0   0  0  0
  59  2  0   0   0   0  0  0
  60  0  2   0   0   0  0  0
  61  2  0   0   0   0  0  0
  62  0  2   0   0   0  0  0
  63  2  0   0   0   0  0  0
  64  0  2   0   0   0  0  0
  65  2  0   0   0   0  0  0
  66  0  2   0   0   0  0  0
  67  2  0   0   0   0  0  0
  68  0  2   0   0   0  0  0
  69  2  0   0   0   0  0  0
  70  0  2   0   0   0  0  0
  71  2  0   0   0   0  0  0
  72  0  2   0   0   0  0  0
  73  2  0   0   0   0  0  0
  74  0  2   0   0   0  0  0
  75  2  0   0   0   0  0  0
  76  0  2   0   0   0  0  0
  77  2  0   0   0   0  0  0
  78  0  2   0   0   0  0  0
  79  2  0   0   0   0  0  0
  80  0  2   0   0   0  0  0
  81  2  0   0   0   0  0  0
  82  0  2   0   0   0  0  0
  83  0  0   1   1   1  0  0
  84  0  0   0   0   0  1  0
  85  1  0   0   0   0  0  0
  86  0  3   0   0   0  0  0
  87  2  0   0   0   0  0  0
  88  0  3   0   0   0  0  0
  89  2  0   0   0   0  0  0
  90  0  3   0   0   0  0  0
  91  2  0   0   0   0  0  0
  92  0  3   0   0   0  0  0
  93  2  0   0   0   0  0  0
  94  0  3   0   0   0  0  0
  95  2  0   0   0   0  0  0
  96  0  3   0   0   0  0  0
  97  2  0   0   0   0  0  0
  98  0  3   0   0   0  0  0
  99  2  0   0   0   0  0  0
 100  0  3   0   0   0  0  0
 101  2  0   0   0   0  0  0
 102  0  3   0   0   0  0  0
 103  2  0   0   0   0  0  0
 104  0  3   0   0   0  0  0
 105  2  0   0   0   0  0  0
 106  0  3   0   0   0  0  0
 107  2  0   0   0   0  0  0
 108  0  3   0   0   0  0  0
 109  2  0   0   0   0  0  0
 110  0  3   0   0   0  0  0
 111  2  0   0   0   0  0  0
 112  0  3   0   0   0  0  0
 113  2  0   0   0   0  0  0
 114  0  3   0   0   0  0  0
 115  2  0   0   0   0  0  0
 116  0  3   0   0   0  0  0
 117  2  0   0   0   0  0  0
 118  0  3   0   0   0  0  0
 119  2  0   0   0   0  0  0
 120  0  3   0   0   0  0  0
 121  2  0   0   0   0  0  0
 122  0  3   0   0   0  0  0
 123  2  0   0   0   0  0  0
 124  0  3   0   0   0  0  0
 125  0  0   1   1   1  0  0
 126  0  0   0   0   0  1  0
 127  1  0   0   0   0  0  0
 128  0  4   0   0   0  0  0
 129  2  0   0   0   0  0  0
 130  0  4   0   0   0  0  0
 131  2  0   0   0   0  0  0
 132  0  4   0   0   0  0  0
 133  2  0   0   0   0  0  0
 134  0  4   0   0   0  0  0
 135  2  0   0   0   0  0  0
 136  0  4   0   0   0  0  0
 137  2  0   0   0   0  0  0
 138  0  4   0   0   0  0  0
 139  2  0   0   0   0  0  0
 140  0  4   0   0   0  0  0
 141  2  0   0   0   0  0  0
 142  0  4   0   0   0  0  0
 143  2  0   0   0   0  0  0
 144  0  4   0   0   0  0  0
 145  2  0   0   0   0  0  0
 146  0  4   0   0   0  0  0
 147  2  0   0   0   0  0  0
 148  0  4   0   0   0  0  0
 149  2  0   0   0   0  0  0
 150  0  4   0   0   0  0  0
 151  2  0   0   0   0  0  0
 152  0  4   0   0   0  0  0
 153  2  0   0   0   0  0  0
 154  0  4   0   0   0  0  0
 155  2  0   0   0   0  0  0
 156  0  4   0   0   0  0  0
 157  2  0   0   0   0  0  0
 158  0  4   0   0   0  0  0
 159  2  0   0   0   0  0  0
 160  0  4   0   0   0  0  0
 161  2  0   0   0   0  0  0
 162  0  4   0   0   0  0  0
 163  2  0   0   0   0  0  0
 164  0  4   0   0   0  0  0
 165  2  0   0   0   0  0  0
 166  0  4   0   0   0  0  0
 167  0  0   1   1   1  0  0
 168  0  0   0   0   0  1  0
 169  1  0   0   0   0  0  0
 170  0  5   0   0   0  0  0
 171  2  0   0   0   0  0  0
 172  0  5   0   0   0  0  0
 173  2  0   0   0   0  0  0
 174  0  5   0   0   0  0  0
 175  2  0   0   0   0  0  0
 176  0  5   0   0   0  0  0
 177  2  0   0   0   0  0  0
 178  0  5   0   0   0  0  0
 179  2  0   0   0   0  0  0
 180  0  5   0   0   0  0  0
 181  2  0   0   0   0  0  0
 182  0  5   0   0   0  0  0
 183  2  0   0   0   0  0  0
 184  0  5   0   0   0  0  0
 185  2  0   0   0   0  0  0
 186  0  5   0   0   0  0  0
 187  2  0   0   0   0  0  0
 188  0  5   0   0   0  0  0
 189  2  0   0   0   0  0  0
 190  0  5   0   0   0  0  0
 191  2  0   0   0   0  0  0
 192  0  5   0   0   0  0  0
 193  2  0   0   0   0  0  0
 194  0  5   0   0   0  0  0
 195  2  0   0   0   0  0  0
 196  0  5   0   0   0  0  0
 197  2  0   0   0   0  0  0
 198  0  5   0   0   0  0  0
 199  2  0   0   0   0  0  0
 200  0  5   0   0   0  0  0
 201  2  0   0   0   0  0  0
 202  0  5   0   0   0  0  0
 203  2  0   0   0   0  0  0
 204  0  5   0   0   0  0  0
 205  2  0   0   0   0  0  0
 206  0  5   0   0   0  0  0
 207  2  0   0   0   0  0  0
 208  0  5   0   0   0  0  0
 209  0  0   1   1   1  0  0
 210  0  0   0   0   0  1  0
 211  1  0   0   0   0  0  0
 212  0  6   0   0   0  0  0
 213  2  0   0   0   0  0  0
 214  0  6   0   0   0  0  0
 215  2  0   0   0   0  0  0
 216  0  6   0   0   0  0  0
 217  2  0   0   0   0  0  0
 218  0  6   0   0   0  0  0
 219  2  0   0   0   0  0  0
 220  0  6   0   0   0  0  0
 221  2  0   0   0   0  0  0
 222  0  6   0   0   0  0  0
 223  2  0   0   0   0  0  0
 224  0  6   0   0   0  0  0
 225  2  0   0   0   0  0  0
 226  0  6   0   0   0  0  0
 227  2  0   0   0   0  0  0
 228  0  6   0   0   0  0  0
 229  2  0   0   0   0  0  0
 230  0  6   0   0   0  0  0
 231  2  0   0   0   0  0  0
 232  0  6   0   0   0  0  0
 233  2  0   0   0   0  0  0
 234  0  6   0   0   0  0  0
 235  2  0   0   0   0  0  0
 236  0  6   0   0   0  0  0
 237  2  0   0   0   0  0  0
 238  0  6   0   0   0  0  0
 239  2  0   0   0   0  0  0
 240  0  6   0   0   0  0  0
 241  2  0   0   0   0  0  0
 242  0  6   0   0   0  0  0
 243  2  0   0   0   0  0  0
 244  0  6   0   0   0  0  0
 245  2  0   0   0   0  0  0
 246  0  6   0   0   0  0  0
 247  2  0   0   0   0  0  0
 248  0  6   0   0   0  0  0
 249  2  0   0   0   0  0  0
 250  0  6   0   0   0  0  0
 251  0  0   1   1   1  0  0
 252  0  0   0   0   0  1  0
 253  1  0   0   0   0  0  0
 254  0  7   0   0   0  0  0
 255  2  0   0   0   0  0  0
 256  0  7   0   0   0  0  0
 257  2  0   0   0   0  0  0
 258  0  7   0   0   0  0  0
 259  2  0   0   0   0  0  0
 260  0  7   0   0   0  0  0
 261  2  0   0   0   0  0  0
 262  0  7   0   0   0  0  0
 263  2  0   0   0   0  0  0
 264  0  7   0   0   0  0  0
 265  2  0   0   0   0  0  0
 266  0  7   0   0   0  0  0
 267  2  0   0   0   0  0  0
 268  0  7   0   0   0  0  0
 269  2  0   0   0   0  0  0
 270  0  7   0   0   0  0  0
 271  2  0   0   0   0  0  0
 272  0  7   0   0   0  0  0
 273  2  0   0   0   0  0  0
 274  0  7   0   0   0  0  0
 275  2  0   0   0   0  0  0
 276  0  7   0   0   0  0  0
 277  2  0   0   0   0  0  0
 278  0  7   0   0   0  0  0
 279  2  0   0   0   0  0  0
 280  0  7   0   0   0  0  0
 281  2  0   0   0   0  0  0
 282  0  7   0   0   0  0  0
 283  2  0   0   0   0  0  0
 284  0  7   0   0   0  0  0
 285  2  0   0   0   0  0  0
 286  0  7   0   0   0  0  0
 287  2  0   0   0   0  0  0
 288  0  7   0   0   0  0  0
 289  2  0   0   0   0  0  0
 290  0  7   0   0   0  0  0
 291  2  0   0   0   0  0  0
 292  0  7   0   0   0  0  0
 293  0  0   1   1   1  0  0
 294  0  0   0   0   0  1  0
 295  1  0   0   0   0  0  0
 296  0  8   0   0   0  0  0
 297  2  0   0   0   0  0  0
 298  0  8   0   0   0  0  0
 299  2  0   0   0   0  0  0
 300  0  8   0   0   0  0  0
 301  2  0   0   0   0  0  0
 302  0  8   0   0   0  0  0
 303  2  0   0   0   0  0  0
 304  0  8   0   0   0  0  0
 305  2  0   0   0   0  0  0
 306  0  8   0   0   0  0  0
 307  2  0   0   0   0  0  0
 308  0  8   0   0   0  0  0
 309  2  0   0   0   0  0  0
 310  0  8   0   0   0  0  0
 311  2  0   0   0   0  0  0
 312  0  8   0   0   0  0  0
 313  2  0   0   0   0  0  0
 314  0  8   0   0   0  0  0
 315  2  0   0   0   0  0  0
 316  0  8   0   0   0  0  0
 317  2  0   0   0   0  0  0
 318  0  8   0   0   0  0  0
 319  2  0   0   0   0  0  0
 320  0  8   0   0   0  0  0
 321  2  0   0   0   0  0  0
 322  0  8   0   0   0  0  0
 323  2  0   0   0   0  0  0
 324  0  8   0   0   0  0  0
 325  2  0   0   0   0  0  0
 326  0  8   0   0   0  0  0
 327  2  0   0   0   0  0  0
 328  0  8   0   0   0  0  0
 329  2  0   0   0   0  0  0
 330  0  8   0   0   0  0  0
 331  2  0   0   0   0  0  0
 332  0  8   0   0   0  0  0
[RF]
1       197.51 1 2 100 -199258 0
2       197.51 1 2 100 -510.917 0
3       197.51 1 2 100 -478.984 0
4       197.51 1 2 100 -447.052 0
5       197.51 1 2 100 -415.12 0
6       197.51 1 2 100 -383.188 0
7       197.51 1 2 100 -351.255 0
8       197.51 1 2 100 -319.323 0
9       197.51 1 2 100 -287.391 0
10       197.51 1 2 100 -255.458 0
11       197.51 1 2 100 -223.526 0
12       197.51 1 2 100 -191.594 0
13       197.51 1 2 100 -159.661 0
14       197.51 1 2 100 -127.729 0
15       197.51 1 2 100 -95.7969 0
16       197.51 1 2 100 -63.8646 0
17       197.51 1 2 100 -31.9323 0
18       197.51 1 2 100 0 0
19       197.51 1 2 100 31.9323 0
20       197.51 1 2 100 63.8646 0
21       197.51 1 2 100 95.7969 0
22       197.51 1 2 100 127.729 0
23       197.51 1 2 100 159.661 0
24       197.51 1 2 100 191.594 0
25       197.51 1 2 100 223.526 0
26       197.51 1 2 100 255.458 0
27       197.51 1 2 100 287.391 0
28       197.51 1 2 100 319.323 0
29       197.51 1 2 100 351.255 0
30       197.51 1 2 100 383.188 0
31       197.51 1 2 100 415.12 0
32       197.51 1 2 100 447.052 0
33       197.51 1 2 100 478.984 0
34       197.51 1 2 100 510.917 0

# Format of trapezoid gradients:
# id amplitude rise flat fall delay
# ..      Hz/m   us   us   us    us
[TRAP]
 1  1.36243e+06 250 4000 250   0

# Format of ADC events:
# id num dwell delay freq phase
# ..  ..    ns    us   Hz   rad
[ADC]
1 1 1000000 0 0 0

# Format of delays:
# id delay (us)
[DELAYS]
1 3500000
2 50000

# Sequence Shapes
[SHAPES]

shape_id 1
num_samples 50030
0
0
1
1e-07
0
0
0
1e-07
0
1e-07
1e-07
2
0
1e-07
2e-07
1e-07
1e-07
1
2e-07
1e-07
2e-07
2e-07
0
1e-07
2e-07
2e-07
5
3e-07
2e-07
3e-07
2e-07
3e-07
3e-07
0
2e-07
3e-07
3e-07
3
4e-07
3e-07
3e-07
0
4e-07
4e-07
0
3e-07
4e-07
4e-07
1
3e-07
4e-07
5e-07
4e-07
4e-07
1
5e-07
4e-07
5e-07
4e-07
5e-07
5e-07
7
6e-07
5e-07
6e-07
6e-07
0
5e-07
6e-07
6e-07
5
7e-07
6e-07
6e-07
0
7e-07
7e-07
0
6e-07
7e-07
7e-07
5
8e-07
7e-07
8e-07
7e-07
8e-07
7e-07
8e-07
8e-07
5
9e-07
8e-07
8e-07
0
9e-07
9e-07
0
8e-07
9e-07
9e-07
5
1e-06
9e-07
9e-07
0
1e-06
1e-06
0
9e-07
1e-06
1e-06
6
1.1e-06
1e-06
1.1e-06
1e-06
1.1e-06
1.1e-06
7
1.2e-06
1.1e-06
1.2e-06
1.1e-06
1.2e-06
1.2e-06
0
1.1e-06
1.2e-06
1.2e-06
1
1.3e-06
1.2e-06
1.2e-06
1
1.3e-06
1.2e-06
1.3e-06
1.3e-06
0
1.2e-06
1.3e-06
1.3e-06
4
1.4e-06
1.3e-06
1.4e-06
1.3e-06
1.4e-06
1.3e-06
1.4e-06
1.4e-06
6
1.5e-06
1.4e-06
1.5e-06
1.4e-06
1.5e-06
1.5e-06
0
1.4e-06
1.5e-06
1.5e-06
1
1.6e-06
1.5e-06
1.5e-06
1
1.6e-06
1.5e-06
1.6e-06
1.6e-06
0
1.5e-06
1.6e-06
1.6e-06
4
1.7e-06
1.6e-06
1.6e-06
0
1.7e-06
1.6e-06
1.7e-06
1.7e-06
1
1.6e-06
1.7e-06
1.7e-06
0
1.8e-06
1.7e-06
1.7e-06
1
1.8e-06
1.7e-06
1.8e-06
1.7e-06
1.8e-06
1.8e-06
6
1.9e-06
1.8e-06
1.9e-06
1.8e-06
1.9e-06
1.9e-06
0
1.8e-06
1.9e-06
1.9e-06
2
2e-06
1.9e-06
1.9e-06
0
2e-06
1.9e-06
2e-06
1.9e-06
2e-06
2e-06
7
2.1e-06
2e-06
2.1e-06
2.1e-06
0
2e-06
2.1e-06
2.1e-06
5
2.2e-06
2.1e-06
2.2e-06
2.1e-06
2.2e-06
2.2e-06
0
2.1e-06
2.2e-06
2.2e-06
3
2.3e-06
2.2e-06
2.2e-06
0
2.3e-06
2.2e-06
2.3e-06
2.3e-06
1
2.2e-06
2.3e-06
2.3e-06
1
2.4e-06
2.3e-06
2.3e-06
0
2.4e-06
2.3e-06
2.4e-06
2.3e-06
2.4e-06
2.4e-06
1
2.3e-06
2.5e-06
2.4e-06
2.4e-06
2
2.5e-06
2.4e-06
2.5e-06
2.4e-06
2.5e-06
2.5e-06
7
2.6e-06
2.5e-06
2.6e-06
2.5e-06
2.6e-06
2.6e-06
7
2.7e-06
2.6e-06
2.7e-06
2.6e-06
2.7e-06
2.7e-06
7
2.8e-06
2.7e-06
2.8e-06
2.7e-06
2.8e-06
2.8e-06
7
2.9e-06
2.8e-06
2.9e-06
2.8e-06
2.9e-06
2.9e-06
2
2.8e-06
3e-06
2.9e-06
2.9e-06
1
3e-06
2.9e-06
3e-06
2.9e-06
3e-06
3e-06
0
2.9e-06
3e-06
3e-06
1
3.1e-06
3e-06
3e-06
1
3.1e-06
3e-06
3.1e-06
3.1e-06
0
3e-06
3.1e-06
3.1e-06
3
3.2e-06
3.1e-06
3.1e-06
0
3.2e-06
3.1e-06
3.2e-06
3.1e-06
3.2e-06
3.2e-06
5
3.3e-06
3.2e-06
3.2e-06
0
3.3e-06
3.3e-06
0
3.2e-06
3.3e-06
3.3e-06
6
3.4e-06
3.3e-06
3.4e-06
3.3e-06
3.4e-06
3.4e-06
0
3.3e-06
3.4e-06
3.4e-06
2
3.5e-06
3.4e-06
3.4e-06
0
3.5e-06
3.4e-06
3.5e-06
3.5e-06
0
3.4e-06
3.5e-06
3.5e-06
4
3.6e-06
3.5e-06
3.5e-06
0
3.6e-06
3.5e-06
3.6e-06
3.6e-06
8
3.7e-06
3.6e-06
3.7e-06
3.7e-06
0
3.6e-06
3.7e-06
3.7e-06
4
3.8e-06
3.7e-06
3.7e-06
0
3.8e-06
3.7e-06
3.8e-06
3.8e-06
8
3.9e-06
3.8e-06
3.9e-06
3.9e-06
0
3.8e-06
3.9e-06
3.9e-06
4
4e-06
3.9e-06
3.9e-06
0
4e-06
3.9e-06
4e-06
4e-06
1
3.9e-06
4e-06
4e-06
1
4.1e-06
4e-06
4e-06
0
4.1e-06
4e-06
4.1e-06
4e-06
4.1e-06
4.1e-06
6
4.2e-06
4.1e-06
4.1e-06
0
4.2e-06
4.2e-06
0
4.1e-06
4.2e-06
4.2e-06
4
4.3e-06
4.2e-06
4.2e-06
0
4.3e-06
4.2e-06
4.3e-06
4.3e-06
0
4.2e-06
4.3e-06
4.3e-06
2
4.4e-06
4.3e-06
4.3e-06
1
4.4e-06
4.4e-06
0
4.3e-06
4.4e-06
4.4e-06
0
4.3e-06
4.4e-06
4.4e-06
0
4.5e-06
4.4e-06
4.4e-06
1
4.5e-06
4.4e-06
4.5e-06
4.4e-06
4.5e-06
4.5e-06
7
4.6e-06
4.5e-06
4.6e-06
4.5e-06
4.6e-06
4.6e-06
7
4.7e-06
4.6e-06
4.7e-06
4.6e-06
4.7e-06
4.7e-06
6
4.8e-06
4.7e-06
4.7e-06
0
4.8e-06
4.8e-06
0
4.7e-06
4.8e-06
4.8e-06
5
4.9e-06
4.8e-06
4.8e-06
0
4.9e-06
4.8e-06
4.9e-06
4.9e-06
7
5e-06
4.9e-06
5e-06
4.9e-06
5e-06
5e-06
7
5.1e-06
5e-06
5.1e-06
5e-06
5.1e-06
5.1e-06
1
5e-06
5.1e-06
5.2e-06
5.1e-06
5.1e-06
1
5.2e-06
5.1e-06
5.2e-06
5.1e-06
5.2e-06
5.2e-06
0
5.1e-06
5.2e-06
5.2e-06
2
5.3e-06
5.2e-06
5.2e-06
0
5.3e-06
5.2e-06
5.3e-06
5.3e-06
0
5.2e-06
5.3e-06
5.3e-06
4
5.4e-06
5.3e-06
5.3e-06
0
5.4e-06
5.4e-06
0
5.3e-06
5.4e-06
5.4e-06
6
5.5e-06
5.4e-06
5.5e-06
5.4e-06
5.5e-06
5.5e-06
0
5.4e-06
5.5e-06
5.5e-06
1
5.6e-06
5.5e-06
5.5e-06
1
5.6e-06
5.5e-06
5.6e-06
5.6e-06
0
5.5e-06
5.6e-06
5.6e-06
4
5.7e-06
5.6e-06
5.6e-06
0
5.7e-06
5.6e-06
5.7e-06
5.7e-06
2
5.6e-06
5.8e-06
5.7e-06
5.7e-06
2
5.8e-06
5.7e-06
5.8e-06
5.8e-06
0
5.7e-06
5.8e-06
5.8e-06
4
5.9e-06
5.8e-06
5.8e-06
0
5.9e-06
5.8e-06
5.9e-06
5.9e-06
1
5.8e-06
5.9e-06
5.9e-06
0
6e-06
5.9e-06
5.9e-06
1
6e-06
5.9e-06
6e-06
5.9e-06
6e-06
6e-06
6
6.1e-06
6e-06
6.1e-06
6e-06
6.1e-06
6e-06
6.1e-06
6.1e-06
4
6.2e-06
6.1e-06
6.1e-06
0
6.2e-06
6.1e-06
6.2e-06
6.2e-06
1
6.1e-06
6.2e-06
6.2e-06
1
6.3e-06
6.2e-06
6.2e-06
0
6.3e-06
6.2e-06
6.3e-06
6.2e-06
6.3e-06
6.3e-06
1
6.2e-06
6.4e-06
6.3e-06
6.3e-06
2
6.4e-06
6.3e-06
6.4e-06
6.3e-06
6.4e-06
6.4e-06
7
6.5e-06
6.4e-06
6.5e-06
6.4e-06
6.5e-06
6.5e-06
7
6.6e-06
6.5e-06
6.6e-06
6.5e-06
6.6e-06
6.6e-06
7
6.7e-06
6.6e-06
6.7e-06
6.6e-06
6.7e-06
6.7e-06
7
6.8e-06
6.7e-06
6.8e-06
6.7e-06
6.8e-06
6.8e-06
7
6.9e-06
6.8e-06
6.9e-06
6.8e-06
6.9e-06
6.9e-06
0
6.8e-06
6.9e-06
6.9e-06
1
7e-06
6.9e-06
6.9e-06
1
7e-06
6.9e-06
7e-06
7e-06
0
6.9e-06
7e-06
7e-06
4
7.1e-06
7e-06
7.1e-06
7e-06
7.1e-06
7e-06
7.1e-06
7.1e-06
6
7.2e-06
7.1e-06
7.2e-06
7.1e-06
7.2e-06
7.2e-06
0
7.1e-06
7.2e-06
7.2e-06
1
7.3e-06
7.2e-06
7.2e-06
1
7.3e-06
7.2e-06
7.3e-06
7.2e-06
7.3e-06
7.3e-06
6
7.4e-06
7.3e-06
7.4e-06
7.3e-06
7.4e-06
7.4e-06
1
7.3e-06
7.4e-06
7.4e-06
1
7.5e-06
7.4e-06
7.4e-06
0
7.5e-06
7.4e-06
7.5e-06
7.4e-06
7.5e-06
7.5e-06
6
7.6e-06
7.5e-06
7.6e-06
7.5e-06
7.6e-06
7.5e-06
7.6e-06
7.6e-06
4
7.7e-06
7.6e-06
7.6e-06
0
7.7e-06
7.6e-06
7.7e-06
7.7e-06
0
7.6e-06
7.7e-06
7.7e-06
2
7.8e-06
7.7e-06
7.7e-06
0
7.8e-06
7.7e-06
7.8e-06
7.7e-06
7.8e-06
7.8e-06
0
7.7e-06
7.8e-06
7.8e-06
0
7.9e-06
7.8e-06
7.8e-06
1
7.9e-06
7.8e-06
7.9e-06
7.8e-06
7.9e-06
7.9e-06
7
8e-06
7.9e-06
8e-06
7.9e-06
8e-06
8e-06
7
8.1e-06
8e-06
8.1e-06
8e-06
8.1e-06
8.1e-06
1
8e-06
8.1e-06
8.1e-06
0
8.2e-06
8.1e-06
8.1e-06
0
8.2e-06
8.1e-06
8.1e-06
0
8.2e-06
8.2e-06
1
8.1e-06
8.2e-06
8.2e-06
2
8.3e-06
8.2e-06
8.2e-06
0
8.3e-06
8.2e-06
8.3e-06
8.3e-06
0
8.2e-06
8.3e-06
8.3e-06
4
8.4e-06
8.3e-06
8.3e-06
0
8.4e-06
8.4e-06
0
8.3e-06
8.4e-06
8.4e-06
6
8.5e-06
8.4e-06
8.5e-06
8.4e-06
8.5e-06
8.5e-06
0
8.4e-06
8.5e-06
8.5e-06
2
8.6e-06
8.5e-06
8.5e-06
0
8.6e-06
8.5e-06
8.6e-06
8.5e-06
8.6e-06
8.6e-06
6
8.7e-06
8.6e-06
8.6e-06
0
8.7e-06
8.7e-06
0
8.6e-06
8.7e-06
8.7e-06
4
8.8e-06
8.7e-06
8.7e-06
0
8.8e-06
8.7e-06
8.8e-06
8.8e-06
0
8.7e-06
8.8e-06
8.8e-06
2
8.9e-06
8.8e-06
8.8e-06
0
8.9e-06
8.8e-06
8.9e-06
8.8e-06
8.9e-06
8.9e-06
1
8.8e-06
8.9e-06
9e-06
8.9e-06
8.9e-06
1
9e-06
8.9e-06
9e-06
8.9e-06
9e-06
9e-06
7
9.1e-06
9e-06
9.1e-06
9e-06
9.1e-06
9.1e-06
7
9.2e-06
9.1e-06
9.2e-06
9.1e-06
9.2e-06
9.2e-06
0
9.1e-06
9.2e-06
9.2e-06
1
9.3e-06
9.2e-06
9.2e-06
1
9.3e-06
9.2e-06
9.3e-06
9.3e-06
0
9.2e-06
9.3e-06
9.3e-06
3
9.4e-06
9.3e-06
9.3e-06
0
9.4e-06
9.3e-06
9.4e-06
9.3e-06
9.4e-06
9.4e-06
6
9.5e-06
9.4e-06
9.5e-06
9.4e-06
9.5e-06
9.5e-06
1
9.4e-06
9.5e-06
9.5e-06
0
9.6e-06
9.5e-06
9.5e-06
1
9.6e-06
9.5e-06
9.6e-06
9.5e-06
9.6e-06
9.6e-06
6
9.7e-06
9.6e-06
9.7e-06
9.6e-06
9.7e-06
9.7e-06
0
9.6e-06
9.7e-06
9.7e-06
3
9.8e-06
9.7e-06
9.7e-06
0
9.8e-06
9.7e-06
9.8e-06
9.8e-06
1
9.7e-06
9.8e-06
9.8e-06
1
9.9e-06
9.8e-06
9.8e-06
0
9.9e-06
9.8e-06
9.9e-06
9.8e-06
9.9e-06
9.9e-06
1
9.8e-06
9.9e-06
1e-05
9.9e-06
9.9e-06
1
1e-05
9.9e-06
1e-05
9.9e-06
1e-05
1e-05
0
9.9e-06
1e-05
1e-05
1
1.01e-05
1e-05
1e-05
1
1.01e-05
1e-05
1.01e-05
1.01e-05
1
1e-05
1.01e-05
1.01e-05
2
1.02e-05
1.01e-05
1.01e-05
0
1.02e-05
1.01e-05
1.02e-05
1.02e-05
0
1.01e-05
1.02e-05
1.02e-05
4
1.03e-05
1.02e-05
1.02e-05
0
1.03e-05
1.02e-05
1.03e-05
1.03e-05
8
1.04e-05
1.03e-05
1.04e-05
1.04e-05
0
1.03e-05
1.04e-05
1.04e-05
4
1.05e-05
1.04e-05
1.04e-05
0
1.05e-05
1.04e-05
1.05e-05
1.05e-05
0
1.04e-05
1.05e-05
1.05e-05
2
1.06e-05
1.05e-05
1.05e-05
0
1.06e-05
1.05e-05
1.06e-05
1.05e-05
1.06e-05
1.06e-05
1
1.05e-05
1.07e-05
1.06e-05
1.06e-05
2
1.07e-05
1.06e-05
1.07e-05
1.06e-05
1.07e-05
1.07e-05
7
1.08e-05
1.07e-05
1.08e-05
1.07e-05
1.08e-05
1.08e-05
1
1.07e-05
1.08e-05
1.09e-05
1.08e-05
1.08e-05
1
1.09e-05
1.08e-05
1.08e-05
0
1.09e-05
1.09e-05
1
1.08e-05
1.09e-05
1.09e-05
2
1.1e-05
1.09e-05
1.09e-05
0
1.1e-05
1.09e-05
1.1e-05
1.09e-05
1.1e-05
1.1e-05
6
1.11e-05
1.1e-05
1.11e-05
1.1e-05
1.11e-05
1.11e-05
0
1.1e-05
1.11e-05
1.11e-05
2
1.12e-05
1.11e-05
1.11e-05
0
1.12e-05
1.11e-05
1.12e-05
1.11e-05
1.12e-05
1.12e-05
7
1.13e-05
1.12e-05
1.13e-05
1.12e-05
1.13e-05
1.13e-05
6
1.14e-05
1.13e-05
1.13e-05
0
1.14e-05
1.14e-05
0
1.13e-05
1.14e-05
1.14e-05
6
1.15e-05
1.14e-05
1.15e-05
1.14e-05
1.15e-05
1.15e-05
7
1.16e-05
1.15e-05
1.16e-05
1.15e-05
1.16e-05
1.16e-05
0
1.15e-05
1.16e-05
1.16e-05
2
1.17e-05
1.16e-05
1.16e-05
0
1.17e-05
1.16e-05
1.17e-05
1.16e-05
1.17e-05
1.17e-05
6
1.18e-05
1.17e-05
1.18e-05
1.17e-05
1.18e-05
1.17e-05
1.18e-05
1.18e-05
4
1.19e-05
1.18e-05
1.18e-05
0
1.19e-05
1.18e-05
1.19e-05
1.19e-05
0
1.18e-05
1.19e-05
1.19e-05
3
1.2e-05
1.19e-05
1.19e-05
0
1.2e-05
1.19e-05
1.2e-05
1.2e-05
0
1.19e-05
1.2e-05
1.2e-05
3
1.21e-05
1.2e-05
1.2e-05
0
1.21e-05
1.2e-05
1.21e-05
1.21e-05
0
1.2e-05
1.21e-05
1.21e-05
4
1.22e-05
1.21e-05
1.21e-05
0
1.22e-05
1.22e-05
0
1.21e-05
1.22e-05
1.22e-05
6
1.23e-05
1.22e-05
1.23e-05
1.22e-05
1.23e-05
1.22e-05
1.23e-05
1.23e-05
4
1.24e-05
1.23e-05
1.23e-05
0
1.24e-05
1.23e-05
1.24e-05
1.24e-05
1
1.23e-05
1.24e-05
1.24e-05
1
1.25e-05
1.24e-05
1.24e-05
0
1.25e-05
1.24e-05
1.25e-05
1.24e-05
1.25e-05
1.25e-05
0
1.24e-05
1.25e-05
1.25e-05
1
1.26e-05
1.25e-05
1.25e-05
1
1.26e-05
1.25e-05
1.26e-05
1.26e-05
1
1.25e-05
1.26e-05
1.26e-05
2
1.27e-05
1.26e-05
1.26e-05
0
1.27e-05
1.26e-05
1.27e-05
1.26e-05
1.27e-05
1.27e-05
5
1.28e-05
1.27e-05
1.27e-05
0
1.28e-05
1.27e-05
1.28e-05
1.28e-05
1
1.27e-05
1.28e-05
1.28e-05
1
1.29e-05
1.28e-05
1.28e-05
0
1.29e-05
1.28e-05
1.29e-05
1.28e-05
1.29e-05
1.29e-05
7
1.3e-05
1.29e-05
1.3e-05
1.29e-05
1.3e-05
1.3e-05
7
1.31e-05
1.3e-05
1.31e-05
1.3e-05
1.31e-05
1.31e-05
1
1.3e-05
1.31e-05
1.31e-05
0
1.32e-05
1.31e-05
1.31e-05
1
1.32e-05
1.31e-05
1.32e-05
1.32e-05
0
1.31e-05
1.32e-05
1.32e-05
4
1.33e-05
1.32e-05
1.32e-05
0
1.33e-05
1.32e-05
1.33e-05
1.33e-05
1
1.32e-05
1.33e-05
1.33e-05
0
1.34e-05
1.33e-05
1.33e-05
1
1.34e-05
1.33e-05
1.34e-05
1.33e-05
1.34e-05
1.34e-05
7
1.35e-05
1.34e-05
1.35e-05
1.34e-05
1.35e-05
1.35e-05
7
1.36e-05
1.35e-05
1.36e-05
1.35e-05
1.36e-05
1.36e-05
0
1.35e-05
1.36e-05
1.36e-05
2
1.37e-05
1.36e-05
1.36e-05
0
1.37e-05
1.36e-05
1.37e-05
1.36e-05
1.37e-05
1.37e-05
6
1.38e-05
1.37e-05
1.37e-05
0
1.38e-05
1.38e-05
0
1.37e-05
1.38e-05
1.38e-05
5
1.39e-05
1.38e-05
1.39e-05
1.38e-05
1.39e-05
1.38e-05
1.39e-05
1.39e-05
5
1.4e-05
1.39e-05
1.39e-05
0
1.4e-05
1.4e-05
0
1.39e-05
1.4e-05
1.4e-05
6
1.41e-05
1.4e-05
1.41e-05
1.4e-05
1.41e-05
1.4e-05
1.41e-05
1.41e-05
4
1.42e-05
1.41e-05
1.41e-05
0
1.42e-05
1.41e-05
1.42e-05
1.42e-05
1
1.41e-05
1.42e-05
1.42e-05
1
1.43e-05
1.42e-05
1.42e-05
1
1.43e-05
1.42e-05
1.43e-05
1.43e-05
1
1.42e-05
1.43e-05
1.43e-05
2
1.44e-05
1.43e-05
1.43e-05
0
1.44e-05
1.43e-05
1.44e-05
1.44e-05
0
1.43e-05
1.44e-05
1.44e-05
4
1.45e-05
1.44e-05
1.44e-05
0
1.45e-05
1.44e-05
1.45e-05
1.45e-05
1
1.44e-05
1.45e-05
1.45e-05
0
1.46e-05
1.45e-05
1.45e-05
1
1.46e-05
1.45e-05
1.46e-05
1.45e-05
1.46e-05
1.46e-05
7
1.47e-05
1.46e-05
1.47e-05
1.46e-05
1.47e-05
1.47e-05
1
1.46e-05
1.47e-05
1.48e-05
1.47e-05
1.47e-05
2
1.48e-05
1.47e-05
1.48e-05
1.48e-05
0
1.47e-05
1.48e-05
1.48e-05
4
1.49e-05
1.48e-05
1.48e-05
0
1.49e-05
1.48e-05
1.49e-05
1.49e-05
1
1.48e-05
1.49e-05
1.49e-05
1
1.5e-05
1.49e-05
1.49e-05
0
1.5e-05
1.49e-05
1.5e-05
1.49e-05
1.5e-05
1.5e-05
1
1.49e-05
1.5e-05
1.5e-05
0
1.51e-05
1.5e-05
1.5e-05
1
1.51e-05
1.5e-05
1.51e-05
1.51e-05
0
1.5e-05
1.51e-05
1.51e-05
4
1.52e-05
1.51e-05
1.52e-05
1.51e-05
1.52e-05
1.51e-05
1.52e-05
1.52e-05
7
1.53e-05
1.52e-05
1.53e-05
1.52e-05
1.53e-05
1.53e-05
7
1.54e-05
1.53e-05
1.54e-05
1.53e-05
1.54e-05
1.54e-05
7
1.55e-05
1.54e-05
1.54e-05
0
1.55e-05
1.55e-05
0
1.54e-05
1.55e-05
1.55e-05
4
1.56e-05
1.55e-05
1.55e-05
0
1.56e-05
1.55e-05
1.56e-05
1.56e-05
0
1.55e-05
1.56e-05
1.56e-05
3
1.57e-05
1.56e-05
1.56e-05
0
1.57e-05
1.56e-05
1.57e-05
1.57e-05
0
1.56e-05
1.57e-05
1.57e-05
3
1.58e-05
1.57e-05
1.57e-05
0
1.58e-05
1.57e-05
1.58e-05
1.57e-05
1.58e-05
1.58e-05
6
1.59e-05
1.58e-05
1.58e-05
0
1.59e-05
1.59e-05
0
1.58e-05
1.59e-05
1.59e-05
5
1.6e-05
1.59e-05
1.59e-05
0
1.6e-05
1.6e-05
0
1.59e-05
1.6e-05
1.6e-05
6
1.61e-05
1.6e-05
1.61e-05
1.6e-05
1.61e-05
1.61e-05
0
1.6e-05
1.61e-05
1.61e-05
2
1.62e-05
1.61e-05
1.61e-05
0
1.62e-05
1.61e-05
1.62e-05
1.61e-05
1.62e-05
1.62e-05
7
1.63e-05
1.62e-05
1.63e-05
1.62e-05
1.63e-05
1.63e-05
0
1.62e-05
1.63e-05
1.63e-05
1
1.64e-05
1.63e-05
1.63e-05
1
1.64e-05
1.63e-05
1.64e-05
1.63e-05
1.64e-05
1.64e-05
6
1.65e-05
1.64e-05
1.65e-05
1.64e-05
1.65e-05
1.64e-05
1.65e-05
1.65e-05
5
1.66e-05
1.65e-05
1.66e-05
1.65e-05
1.66e-05
1.65e-05
1.66e-05
1.66e-05
6
1.67e-05
1.66e-05
1.67e-05
1.66e-05
1.67e-05
1.67e-05
0
1.66e-05
1.67e-05
1.67e-05
3
1.68e-05
1.67e-05
1.67e-05
0
1.68e-05
1.67e-05
1.68e-05
1.68e-05
0
1.67e-05
1.68e-05
1.68e-05
3
1.69e-05
1.68e-05
1.68e-05
0
1.69e-05
1.68e-05
1.69e-05
1.68e-05
1.69e-05
1.69e-05
6
1.7e-05
1.69e-05
1.7e-05
1.69e-05
1.7e-05
1.69e-05
1.7e-05
1.7e-05
4
1.71e-05
1.7e-05
1.7e-05
0
1.71e-05
1.7e-05
1.71e-05
1.7e-05
1.71e-05
1.71e-05
5
1.72e-05
1.71e-05
1.71e-05
0
1.72e-05
1.71e-05
1.72e-05
1.72e-05
1
1.71e-05
1.72e-05
1.72e-05
1
1.73e-05
1.72e-05
1.72e-05
0
1.73e-05
1.72e-05
1.73e-05
1.72e-05
1.73e-05
1.73e-05
1
1.72e-05
1.73e-05
1.73e-05
0
1.74e-05
1.73e-05
1.73e-05
1
1.74e-05
1.73e-05
1.74e-05
1.74e-05
0
1.73e-05
1.74e-05
1.74e-05
4
1.75e-05
1.74e-05
1.74e-05
0
1.75e-05
1.74e-05
1.75e-05
1.75e-05
1
1.74e-05
1.75e-05
1.75e-05
1
1.76e-05
1.75e-05
1.75e-05
1
1.76e-05
1.75e-05
1.76e-05
1.76e-05
0
1.75e-05
1.76e-05
1.76e-05
3
1.77e-05
1.76e-05
1.76e-05
0
1.77e-05
1.76e-05
1.77e-05
1.76e-05
1.77e-05
1.77e-05
7
1.78e-05
1.77e-05
1.78e-05
1.77e-05
1.78e-05
1.78e-05
7
1.79e-05
1.78e-05
1.78e-05
0
1.79e-05
1.79e-05
0
1.78e-05
1.79e-05
1.79e-05
4
1.8e-05
1.79e-05
1.79e-05
0
1.8e-05
1.79e-05
1.8e-05
1.8e-05
0
1.79e-05
1.8e-05
1.8e-05
3
1.81e-05
1.8e-05
1.8e-05
0
1.81e-05
1.8e-05
1.81e-05
1.8e-05
1.81e-05
1.81e-05
6
1.82e-05
1.81e-05
1.82e-05
1.81e-05
1.82e-05
1.81e-05
1.82e-05
1.82e-05
5
1.83e-05
1.82e-05
1.83e-05
1.82e-05
1.83e-05
1.82e-05
1.83e-05
1.83e-05
6
1.84e-05
1.83e-05
1.84e-05
1.83e-05
1.84e-05
1.83e-05
1.84e-05
1.84e-05
5
1.85e-05
1.84e-05
1.85e-05
1.84e-05
1.85e-05
1.84e-05
1.85e-05
1.85e-05
6
1.86e-05
1.85e-05
1.86e-05
1.85e-05
1.86e-05
1.86e-05
0
1.85e-05
1.86e-05
1.86e-05
3
1.87e-05
1.86e-05
1.86e-05
0
1.87e-05
1.86e-05
1.87e-05
1.86e-05
1.87e-05
1.87e-05
5
1.88e-05
1.87e-05
1.87e-05
0
1.88e-05
1.87e-05
1.88e-05
1.88e-05
0
1.87e-05
1.88e-05
1.88e-05
2
1.89e-05
1.88e-05
1.88e-05
1
1.89e-05
1.88e-05
1.89e-05
1.89e-05
0
1.88e-05
1.89e-05
1.89e-05
4
1.9e-05
1.89e-05
1.89e-05
0
1.9e-05
1.9e-05
0
1.89e-05
1.9e-05
1.9e-05
1
1.89e-05
1.9e-05
1.91e-05
1.9e-05
1.9e-05
1
1.91e-05
1.9e-05
1.91e-05
1.9e-05
1.91e-05
1.91e-05
0
1.9e-05
1.91e-05
1.91e-05
2
1.92e-05
1.91e-05
1.91e-05
0
1.92e-05
1.91e-05
1.92e-05
1.91e-05
1.92e-05
1.92e-05
7
1.93e-05
1.92e-05
1.93e-05
1.92e-05
1.93e-05
1.93e-05
1
1.92e-05
1.93e-05
1.93e-05
0
1.94e-05
1.93e-05
1.93e-05
1
1.94e-05
1.93e-05
1.94e-05
1.93e-05
1.94e-05
1.94e-05
7
1.95e-05
1.94e-05
1.95e-05
1.94e-05
1.95e-05
1.95e-05
2
1.94e-05
1.96e-05
1.95e-05
1.95e-05
2
1.96e-05
1.95e-05
1.96e-05
1.95e-05
1.96e-05
1.96e-05
7
1.97e-05
1.96e-05
1.97e-05
1.96e-05
1.97e-05
1.97e-05
1
1.96e-05
1.97e-05
1.97e-05
0
1.98e-05
1.97e-05
1.97e-05
1
1.98e-05
1.97e-05
1.98e-05
1.97e-05
1.98e-05
1.98e-05
1
1.97e-05
1.98e-05
1.99e-05
1.98e-05
1.98e-05
1
1.99e-05
1.98e-05
1.98e-05
0
1.99e-05
1.99e-05
0
1.98e-05
1.99e-05
1.99e-05
4
2e-05
1.99e-05
1.99e-05
0
2e-05
1.99e-05
2e-05
2e-05
0
1.99e-05
2e-05
2e-05
4
2.01e-05
2e-05
2e-05
0
2.01e-05
2.01e-05
0
2e-05
2.01e-05
2.01e-05
1
2e-05
2.01e-05
2.02e-05
2.01e-05
2.01e-05
1
2.02e-05
2.01e-05
2.02e-05
2.01e-05
2.02e-05
2.02e-05
0
2.01e-05
2.02e-05
2.02e-05
2
2.03e-05
2.02e-05
2.02e-05
0
2.03e-05
2.02e-05
2.03e-05
2.02e-05
2.03e-05
2.03e-05
7
2.04e-05
2.03e-05
2.04e-05
2.03e-05
2.04e-05
2.04e-05
0
2.03e-05
2.04e-05
2.04e-05
3
2.05e-05
2.04e-05
2.04e-05
0
2.05e-05
2.04e-05
2.05e-05
2.05e-05
1
2.04e-05
2.05e-05
2.05e-05
2
2.06e-05
2.05e-05
2.05e-05
0
2.06e-05
2.05e-05
2.06e-05
2.05e-05
2.06e-05
2.06e-05
7
2.07e-05
2.06e-05
2.07e-05
2.06e-05
2.07e-05
2.07e-05
8
2.08e-05
2.07e-05
2.08e-05
2.07e-05
2.08e-05
2.08e-05
7
2.09e-05
2.08e-05
2.09e-05
2.08e-05
2.09e-05
2.09e-05
0
2.08e-05
2.09e-05
2.09e-05
2
2.1e-05
2.09e-05
2.09e-05
0
2.1e-05
2.09e-05
2.1e-05
2.09e-05
2.1e-05
2.1e-05
0
2.09e-05
2.1e-05
2.1e-05
2
2.11e-05
2.1e-05
2.1e-05
0
2.11e-05
2.1e-05
2.11e-05
2.1e-05
2.11e-05
2.11e-05
7
2.12e-05
2.11e-05
2.12e-05
2.11e-05
2.12e-05
2.12e-05
0
2.11e-05
2.12e-05
2.12e-05
3
2.13e-05
2.12e-05
2.12e-05
0
2.13e-05
2.12e-05
2.13e-05
2.13e-05
0
2.12e-05
2.13e-05
2.13e-05
3
2.14e-05
2.13e-05
2.13e-05
0
2.14e-05
2.13e-05
2.14e-05
2.13e-05
2.14e-05
2.14e-05
7
2.15e-05
2.14e-05
2.15e-05
2.14e-05
2.15e-05
2.15e-05
0
2.14e-05
2.15e-05
2.15e-05
3
2.16e-05
2.15e-05
2.15e-05
0
2.16e-05
2.15e-05
2.16e-05
2.16e-05
0
2.15e-05
2.16e-05
2.16e-05
3
2.17e-05
2.16e-05
2.16e-05
0
2.17e-05
2.16e-05
2.17e-05
2.16e-05
2.17e-05
2.17e-05
1
2.16e-05
2.17e-05
2.18e-05
2.17e-05
2.17e-05
1
2.18e-05
2.17e-05
2.17e-05
0
2.18e-05
2.18e-05
0
2.17e-05
2.18e-05
2.18e-05
4
2.19e-05
2.18e-05
2.18e-05
0
2.19e-05
2.18e-05
2.19e-05
2.18e-05
2.19e-05
2.19e-05
5
2.2e-05
2.19e-05
2.19e-05
0
2.2e-05
2.19e-05
2.2e-05
2.2e-05
0
2.19e-05
2.2e-05
2.2e-05
4
2.21e-05
2.2e-05
2.21e-05
2.2e-05
2.21e-05
2.2e-05
2.21e-05
2.21e-05
7
2.22e-05
2.21e-05
2.22e-05
2.21e-05
2.22e-05
2.22e-05
0
2.21e-05
2.22e-05
2.22e-05
2
2.23e-05
2.22e-05
2.22e-05
0
2.23e-05
2.22e-05
2.23e-05
2.22e-05
2.23e-05
2.23e-05
0
2.22e-05
2.23e-05
2.23e-05
2
2.24e-05
2.23e-05
2.23e-05
0
2.24e-05
2.23e-05
2.24e-05
2.23e-05
2.24e-05
2.24e-05
7
2.25e-05
2.24e-05
2.25e-05
2.24e-05
2.25e-05
2.24e-05
2.25e-05
2.25e-05
4
2.26e-05
2.25e-05
2.25e-05
0
2.26e-05
2.25e-05
2.26e-05
2.25e-05
2.26e-05
2.26e-05
6
2.27e-05
2.26e-05
2.26e-05
0
2.27e-05
2.27e-05
0
2.26e-05
2.27e-05
2.27e-05
6
2.28e-05
2.27e-05
2.28e-05
2.27e-05
2.28e-05
2.27e-05
2.28e-05
2.28e-05
5
2.29e-05
2.28e-05
2.28e-05
0
2.29e-05
2.28e-05
2.29e-05
2.29e-05
1
2.28e-05
2.29e-05
2.29e-05
1
2.3e-05
2.29e-05
2.29e-05
1
2.3e-05
2.29e-05
2.3e-05
2.3e-05
0
2.29e-05
2.3e-05
2.3e-05
5
2.31e-05
2.3e-05
2.31e-05
2.3e-05
2.31e-05
2.3e-05
2.31e-05
2.31e-05
6
2.32e-05
2.31e-05
2.32e-05
2.31e-05
2.32e-05
2.31e-05
2.32e-05
2.32e-05
6
2.33e-05
2.32e-05
2.33e-05
2.32e-05
2.33e-05
2.33e-05
0
2.32e-05
2.33e-05
2.33e-05
4
2.34e-05
2.33e-05
2.33e-05
0
2.34e-05
2.33e-05
2.34e-05
2.34e-05
1
2.33e-05
2.34e-05
2.34e-05
