# Pulseq sequence file
# Created by MATLAB mr toolbox

[VERSION]
major 1
minor 3
revision 0

[DEFINITIONS]
offsets_ppm -10 -9.35484 -8.70968 -8.06452 -7.41935 -6.77419 -6.12903 -5.48387 -4.83871 -4.19355 -3.54839 -2.90323 -2.25806 -1.6129 -0.967742 -0.322581 0.322581 0.967742 1.6129 2.25806 2.90323 3.54839 4.19355 4.83871 5.48387 6.12903 6.77419 7.41935 8.06452 8.70968 9.35484 10 
run_m0_scan 1 

# Format of blocks:
#  #  D RF  GX  GY  GZ ADC EXT
[BLOCKS]
   1  1  0   0   0   0  0  0
   2  0  0   0   0   0  1  0
   3  2  0   0   0   0  0  0
   4  0  1   0   0   0  0  0
   5  3  0   0   0   0  0  0
   6  0  2   0   0   0  0  0
   7  3  0   0   0   0  0  0
   8  0  3   0   0   0  0  0
   9  3  0   0   0   0  0  0
  10  0  4   0   0   0  0  0
  11  3  0   0   0   0  0  0
  12  0  5   0   0   0  0  0
  13  3  0   0   0   0  0  0
  14  0  6   0   0   0  0  0
  15  3  0   0   0   0  0  0
  16  0  7   0   0   0  0  0
  17  3  0   0   0   0  0  0
  18  0  8   0   0   0  0  0
  19  3  0   0   0   0  0  0
  20  0  9   0   0   0  0  0
  21  3  0   0   0   0  0  0
  22  0 10   0   0   0  0  0
  23  3  0   0   0   0  0  0
  24  0 11   0   0   0  0  0
  25  3  0   0   0   0  0  0
  26  0 12   0   0   0  0  0
  27  3  0   0   0   0  0  0
  28  0 13   0   0   0  0  0
  29  3  0   0   0   0  0  0
  30  0 14   0   0   0  0  0
  31  3  0   0   0   0  0  0
  32  0 15   0   0   0  0  0
  33  3  0   0   0   0  0  0
  34  0 16   0   0   0  0  0
  35  3  0   0   0   0  0  0
  36  0 17   0   0   0  0  0
  37  3  0   0   0   0  0  0
  38  0 18   0   0   0  0  0
  39  3  0   0   0   0  0  0
  40  0 19   0   0   0  0  0
  41  3  0   0   0   0  0  0
  42  0 20   0   0   0  0  0
  43  0  0   1   1   1  0  0
  44  0  0   0   0   0  1  0
  45  2  0   0   0   0  0  0
  46  0 21   0   0   0  0  0
  47  3  0   0   0   0  0  0
  48  0 22   0   0   0  0  0
  49  3  0   0   0   0  0  0
  50  0 23   0   0   0  0  0
  51  3  0   0   0   0  0  0
  52  0 24   0   0   0  0  0
  53  3  0   0   0   0  0  0
  54  0 25   0   0   0  0  0
  55  3  0   0   0   0  0  0
  56  0 26   0   0   0  0  0
  57  3  0   0   0   0  0  0
  58  0 27   0   0   0  0  0
  59  3  0   0   0   0  0  0
  60  0 28   0   0   0  0  0
  61  3  0   0   0   0  0  0
  62  0 29   0   0   0  0  0
  63  3  0   0   0   0  0  0
  64  0 30   0   0   0  0  0
  65  3  0   0   0   0  0  0
  66  0 31   0   0   0  0  0
  67  3  0   0   0   0  0  0
  68  0 32   0   0   0  0  0
  69  3  0   0   0   0  0  0
  70  0 33   0   0   0  0  0
  71  3  0   0   0   0  0  0
  72  0 34   0   0   0  0  0
  73  3  0   0   0   0  0  0
  74  0 35   0   0   0  0  0
  75  3  0   0   0   0  0  0
  76  0 36   0   0   0  0  0
  77  3  0   0   0   0  0  0
  78  0 37   0   0   0  0  0
  79  3  0   0   0   0  0  0
  80  0 38   0   0   0  0  0
  81  3  0   0   0   0  0  0
  82  0 39   0   0   0  0  0
  83  3  0   0   0   0  0  0
  84  0 40   0   0   0  0  0
  85  0  0   1   1   1  0  0
  86  0  0   0   0   0  1  0
  87  2  0   0   0   0  0  0
  88  0 41   0   0   0  0  0
  89  3  0   0   0   0  0  0
  90  0 42   0   0   0  0  0
  91  3  0   0   0   0  0  0
  92  0 43   0   0   0  0  0
  93  3  0   0   0   0  0  0
  94  0 44   0   0   0  0  0
  95  3  0   0   0   0  0  0
  96  0 45   0   0   0  0  0
  97  3  0   0   0   0  0  0
  98  0 46   0   0   0  0  0
  99  3  0   0   0   0  0  0
 100  0 47   0   0   0  0  0
 101  3  0   0   0   0  0  0
 102  0 48   0   0   0  0  0
 103  3  0   0   0   0  0  0
 104  0 49   0   0   0  0  0
 105  3  0   0   0   0  0  0
 106  0 50   0   0   0  0  0
 107  3  0   0   0   0  0  0
 108  0 51   0   0   0  0  0
 109  3  0   0   0   0  0  0
 110  0 52   0   0   0  0  0
 111  3  0   0   0   0  0  0
 112  0 53   0   0   0  0  0
 113  3  0   0   0   0  0  0
 114  0 54   0   0   0  0  0
 115  3  0   0   0   0  0  0
 116  0 55   0   0   0  0  0
 117  3  0   0   0   0  0  0
 118  0 56   0   0   0  0  0
 119  3  0   0   0   0  0  0
 120  0 57   0   0   0  0  0
 121  3  0   0   0   0  0  0
 122  0 58   0   0   0  0  0
 123  3  0   0   0   0  0  0
 124  0 59   0   0   0  0  0
 125  3  0   0   0   0  0  0
 126  0 60   0   0   0  0  0
 127  0  0   1   1   1  0  0
 128  0  0   0   0   0  1  0
 129  2  0   0   0   0  0  0
 130  0 61   0   0   0  0  0
 131  3  0   0   0   0  0  0
 132  0 62   0   0   0  0  0
 133  3  0   0   0   0  0  0
 134  0 63   0   0   0  0  0
 135  3  0   0   0   0  0  0
 136  0 64   0   0   0  0  0
 137  3  0   0   0   0  0  0
 138  0 65   0   0   0  0  0
 139  3  0   0   0   0  0  0
 140  0 66   0   0   0  0  0
 141  3  0   0   0   0  0  0
 142  0 67   0   0   0  0  0
 143  3  0   0   0   0  0  0
 144  0 68   0   0   0  0  0
 145  3  0   0   0   0  0  0
 146  0 69   0   0   0  0  0
 147  3  0   0   0   0  0  0
 148  0 70   0   0   0  0  0
 149  3  0   0   0   0  0  0
 150  0 71   0   0   0  0  0
 151  3  0   0   0   0  0  0
 152  0 72   0   0   0  0  0
 153  3  0   0   0   0  0  0
 154  0 73   0   0   0  0  0
 155  3  0   0   0   0  0  0
 156  0 74   0   0   0  0  0
 157  3  0   0   0   0  0  0
 158  0 75   0   0   0  0  0
 159  3  0   0   0   0  0  0
 160  0 76   0   0   0  0  0
 161  3  0   0   0   0  0  0
 162  0 77   0   0   0  0  0
 163  3  0   0   0   0  0  0
 164  0 78   0   0   0  0  0
 165  3  0   0   0   0  0  0
 166  0 79   0   0   0  0  0
 167  3  0   0   0   0  0  0
 168  0 80   0   0   0  0  0
 169  0  0   1   1   1  0  0
 170  0  0   0   0   0  1  0
 171  2  0   0   0   0  0  0
 172  0 81   0   0   0  0  0
 173  3  0   0   0   0  0  0
 174  0 82   0   0   0  0  0
 175  3  0   0   0   0  0  0
 176  0 83   0   0   0  0  0
 177  3  0   0   0   0  0  0
 178  0 84   0   0   0  0  0
 179  3  0   0   0   0  0  0
 180  0 85   0   0   0  0  0
 181  3  0   0   0   0  0  0
 182  0 86   0   0   0  0  0
 183  3  0   0   0   0  0  0
 184  0 87   0   0   0  0  0
 185  3  0   0   0   0  0  0
 186  0 88   0   0   0  0  0
 187  3  0   0   0   0  0  0
 188  0 89   0   0   0  0  0
 189  3  0   0   0   0  0  0
 190  0 90   0   0   0  0  0
 191  3  0   0   0   0  0  0
 192  0 91   0   0   0  0  0
 193  3  0   0   0   0  0  0
 194  0 92   0   0   0  0  0
 195  3  0   0   0   0  0  0
 196  0 93   0   0   0  0  0
 197  3  0   0   0   0  0  0
 198  0 94   0   0   0  0  0
 199  3  0   0   0   0  0  0
 200  0 95   0   0   0  0  0
 201  3  0   0   0   0  0  0
 202  0 96   0   0   0  0  0
 203  3  0   0   0   0  0  0
 204  0 97   0   0   0  0  0
 205  3  0   0   0   0  0  0
 206  0 98   0   0   0  0  0
 207  3  0   0   0   0  0  0
 208  0 99   0   0   0  0  0
 209  3  0   0   0   0  0  0
 210  0 100   0   0   0  0  0
 211  0  0   1   1   1  0  0
 212  0  0   0   0   0  1  0
 213  2  0   0   0   0  0  0
 214  0 101   0   0   0  0  0
 215  3  0   0   0   0  0  0
 216  0 102   0   0   0  0  0
 217  3  0   0   0   0  0  0
 218  0 103   0   0   0  0  0
 219  3  0   0   0   0  0  0
 220  0 104   0   0   0  0  0
 221  3  0   0   0   0  0  0
 222  0 105   0   0   0  0  0
 223  3  0   0   0   0  0  0
 224  0 106   0   0   0  0  0
 225  3  0   0   0   0  0  0
 226  0 107   0   0   0  0  0
 227  3  0   0   0   0  0  0
 228  0 108   0   0   0  0  0
 229  3  0   0   0   0  0  0
 230  0 109   0   0   0  0  0
 231  3  0   0   0   0  0  0
 232  0 110   0   0   0  0  0
 233  3  0   0   0   0  0  0
 234  0 111   0   0   0  0  0
 235  3  0   0   0   0  0  0
 236  0 112   0   0   0  0  0
 237  3  0   0   0   0  0  0
 238  0 113   0   0   0  0  0
 239  3  0   0   0   0  0  0
 240  0 114   0   0   0  0  0
 241  3  0   0   0   0  0  0
 242  0 115   0   0   0  0  0
 243  3  0   0   0   0  0  0
 244  0 116   0   0   0  0  0
 245  3  0   0   0   0  0  0
 246  0 117   0   0   0  0  0
 247  3  0   0   0   0  0  0
 248  0 118   0   0   0  0  0
 249  3  0   0   0   0  0  0
 250  0 119   0   0   0  0  0
 251  3  0   0   0   0  0  0
 252  0 120   0   0   0  0  0
 253  0  0   1   1   1  0  0
 254  0  0   0   0   0  1  0
 255  2  0   0   0   0  0  0
 256  0 121   0   0   0  0  0
 257  3  0   0   0   0  0  0
 258  0 122   0   0   0  0  0
 259  3  0   0   0   0  0  0
 260  0 123   0   0   0  0  0
 261  3  0   0   0   0  0  0
 262  0 124   0   0   0  0  0
 263  3  0   0   0   0  0  0
 264  0 125   0   0   0  0  0
 265  3  0   0   0   0  0  0
 266  0 126   0   0   0  0  0
 267  3  0   0   0   0  0  0
 268  0 127   0   0   0  0  0
 269  3  0   0   0   0  0  0
 270  0 128   0   0   0  0  0
 271  3  0   0   0   0  0  0
 272  0 129   0   0   0  0  0
 273  3  0   0   0   0  0  0
 274  0 130   0   0   0  0  0
 275  3  0   0   0   0  0  0
 276  0 131   0   0   0  0  0
 277  3  0   0   0   0  0  0
 278  0 132   0   0   0  0  0
 279  3  0   0   0   0  0  0
 280  0 133   0   0   0  0  0
 281  3  0   0   0   0  0  0
 282  0 134   0   0   0  0  0
 283  3  0   0   0   0  0  0
 284  0 135   0   0   0  0  0
 285  3  0   0   0   0  0  0
 286  0 136   0   0   0  0  0
 287  3  0   0   0   0  0  0
 288  0 137   0   0   0  0  0
 289  3  0   0   0   0  0  0
 290  0 138   0   0   0  0  0
 291  3  0   0   0   0  0  0
 292  0 139   0   0   0  0  0
 293  3  0   0   0   0  0  0
 294  0 140   0   0   0  0  0
 295  0  0   1   1   1  0  0
 296  0  0   0   0   0  1  0
 297  2  0   0   0   0  0  0
 298  0 141   0   0   0  0  0
 299  3  0   0   0   0  0  0
 300  0 142   0   0   0  0  0
 301  3  0   0   0   0  0  0
 302  0 143   0   0   0  0  0
 303  3  0   0   0   0  0  0
 304  0 144   0   0   0  0  0
 305  3  0   0   0   0  0  0
 306  0 145   0   0   0  0  0
 307  3  0   0   0   0  0  0
 308  0 146   0   0   0  0  0
 309  3  0   0   0   0  0  0
 310  0 147   0   0   0  0  0
 311  3  0   0   0   0  0  0
 312  0 148   0   0   0  0  0
 313  3  0   0   0   0  0  0
 314  0 149   0   0   0  0  0
 315  3  0   0   0   0  0  0
 316  0 150   0   0   0  0  0
 317  3  0   0   0   0  0  0
 318  0 151   0   0   0  0  0
 319  3  0   0   0   0  0  0
 320  0 152   0   0   0  0  0
 321  3  0   0   0   0  0  0
 322  0 153   0   0   0  0  0
 323  3  0   0   0   0  0  0
 324  0 154   0   0   0  0  0
 325  3  0   0   0   0  0  0
 326  0 155   0   0   0  0  0
 327  3  0   0   0   0  0  0
[RF]
1      189.815 1 2 100 -1277.29 0
2      189.815 1 2 100 -1277.29 0.858769
3      189.815 1 2 100 -1277.29 1.71754
4      189.815 1 2 100 -1277.29 2.57631
5      189.815 1 2 100 -1277.29 3.43508
6      189.815 1 2 100 -1277.29 4.29384
7      189.815 1 2 100 -1277.29 5.15261
8      189.815 1 2 100 -1277.29 6.01138
9      189.815 1 2 100 -1277.29 0.586965
10      189.815 1 2 100 -1277.29 1.44573
11      189.815 1 2 100 -1277.29 2.3045
12      189.815 1 2 100 -1277.29 3.16327
13      189.815 1 2 100 -1277.29 4.02204
14      189.815 1 2 100 -1277.29 4.88081
15      189.815 1 2 100 -1277.29 5.73958
16      189.815 1 2 100 -1277.29 0.315161
17      189.815 1 2 100 -1277.29 1.17393
18      189.815 1 2 100 -1277.29 2.0327
19      189.815 1 2 100 -1277.29 2.89147
20      189.815 1 2 100 -1277.29 3.75024
21      189.815 1 2 100 -1194.89 0
22      189.815 1 2 100 -1194.89 1.6141
23      189.815 1 2 100 -1194.89 3.2282
24      189.815 1 2 100 -1194.89 4.84229
25      189.815 1 2 100 -1194.89 0.173206
26      189.815 1 2 100 -1194.89 1.7873
27      189.815 1 2 100 -1194.89 3.4014
28      189.815 1 2 100 -1194.89 5.0155
29      189.815 1 2 100 -1194.89 0.346413
30      189.815 1 2 100 -1194.89 1.96051
31      189.815 1 2 100 -1194.89 3.57461
32      189.815 1 2 100 -1194.89 5.18871
33      189.815 1 2 100 -1194.89 0.519619
34      189.815 1 2 100 -1194.89 2.13372
35      189.815 1 2 100 -1194.89 3.74781
36      189.815 1 2 100 -1194.89 5.36191
37      189.815 1 2 100 -1194.89 0.692825
38      189.815 1 2 100 -1194.89 2.30692
39      189.815 1 2 100 -1194.89 3.92102
40      189.815 1 2 100 -1194.89 5.53512
41      189.815 1 2 100 -1112.48 0
42      189.815 1 2 100 -1112.48 2.36943
43      189.815 1 2 100 -1112.48 4.73885
44      189.815 1 2 100 -1112.48 0.825096
45      189.815 1 2 100 -1112.48 3.19452
46      189.815 1 2 100 -1112.48 5.56395
47      189.815 1 2 100 -1112.48 1.65019
48      189.815 1 2 100 -1112.48 4.01962
49      189.815 1 2 100 -1112.48 0.105861
50      189.815 1 2 100 -1112.48 2.47529
51      189.815 1 2 100 -1112.48 4.84471
52      189.815 1 2 100 -1112.48 0.930956
53      189.815 1 2 100 -1112.48 3.30038
54      189.815 1 2 100 -1112.48 5.66981
55      189.815 1 2 100 -1112.48 1.75605
56      189.815 1 2 100 -1112.48 4.12548
57      189.815 1 2 100 -1112.48 0.211721
58      189.815 1 2 100 -1112.48 2.58115
59      189.815 1 2 100 -1112.48 4.95058
60      189.815 1 2 100 -1112.48 1.03682
61      189.815 1 2 100 -1030.07 0
62      189.815 1 2 100 -1030.07 3.12476
63      189.815 1 2 100 -1030.07 6.24951
64      189.815 1 2 100 -1030.07 3.09108
65      189.815 1 2 100 -1030.07 6.21584
66      189.815 1 2 100 -1030.07 3.05741
67      189.815 1 2 100 -1030.07 6.18217
68      189.815 1 2 100 -1030.07 3.02374
69      189.815 1 2 100 -1030.07 6.14849
70      189.815 1 2 100 -1030.07 2.99006
71      189.815 1 2 100 -1030.07 6.11482
72      189.815 1 2 100 -1030.07 2.95639
73      189.815 1 2 100 -1030.07 6.08115
74      189.815 1 2 100 -1030.07 2.92272
75      189.815 1 2 100 -1030.07 6.04748
76      189.815 1 2 100 -1030.07 2.88905
77      189.815 1 2 100 -1030.07 6.0138
78      189.815 1 2 100 -1030.07 2.85537
79      189.815 1 2 100 -1030.07 5.98013
80      189.815 1 2 100 -1030.07 2.8217
81      189.815 1 2 100 -947.668 0
82      189.815 1 2 100 -947.668 3.88009
83      189.815 1 2 100 -947.668 1.47699
84      189.815 1 2 100 -947.668 5.35707
85      189.815 1 2 100 -947.668 2.95397
86      189.815 1 2 100 -947.668 0.550871
87      189.815 1 2 100 -947.668 4.43096
88      189.815 1 2 100 -947.668 2.02786
89      189.815 1 2 100 -947.668 5.90794
90      189.815 1 2 100 -947.668 3.50484
91      189.815 1 2 100 -947.668 1.10174
92      189.815 1 2 100 -947.668 4.98183
93      189.815 1 2 100 -947.668 2.57873
94      189.815 1 2 100 -947.668 0.175627
95      189.815 1 2 100 -947.668 4.05571
96      189.815 1 2 100 -947.668 1.65261
97      189.815 1 2 100 -947.668 5.5327
98      189.815 1 2 100 -947.668 3.1296
99      189.815 1 2 100 -947.668 0.726498
100      189.815 1 2 100 -947.668 4.60658
101      189.815 1 2 100 -865.262 0
102      189.815 1 2 100 -865.262 4.63541
103      189.815 1 2 100 -865.262 2.98764
104      189.815 1 2 100 -865.262 1.33987
105      189.815 1 2 100 -865.262 5.97529
106      189.815 1 2 100 -865.262 4.32752
107      189.815 1 2 100 -865.262 2.67975
108      189.815 1 2 100 -865.262 1.03198
109      189.815 1 2 100 -865.262 5.66739
110      189.815 1 2 100 -865.262 4.01962
111      189.815 1 2 100 -865.262 2.37185
112      189.815 1 2 100 -865.262 0.724077
113      189.815 1 2 100 -865.262 5.35949
114      189.815 1 2 100 -865.262 3.71172
115      189.815 1 2 100 -865.262 2.06395
116      189.815 1 2 100 -865.262 0.416179
117      189.815 1 2 100 -865.262 5.05159
118      189.815 1 2 100 -865.262 3.40382
119      189.815 1 2 100 -865.262 1.75605
120      189.815 1 2 100 -865.262 0.108281
121      189.815 1 2 100 -782.856 0
122      189.815 1 2 100 -782.856 5.39074
123      189.815 1 2 100 -782.856 4.4983
124      189.815 1 2 100 -782.856 3.60586
125      189.815 1 2 100 -782.856 2.71342
126      189.815 1 2 100 -782.856 1.82098
127      189.815 1 2 100 -782.856 0.928535
128      189.815 1 2 100 -782.856 0.0360938
129      189.815 1 2 100 -782.856 5.42684
130      189.815 1 2 100 -782.856 4.5344
131      189.815 1 2 100 -782.856 3.64195
132      189.815 1 2 100 -782.856 2.74951
133      189.815 1 2 100 -782.856 1.85707
134      189.815 1 2 100 -782.856 0.964629
135      189.815 1 2 100 -782.856 0.0721877
136      189.815 1 2 100 -782.856 5.46293
137      189.815 1 2 100 -782.856 4.57049
138      189.815 1 2 100 -782.856 3.67805
139      189.815 1 2 100 -782.856 2.78561
140      189.815 1 2 100 -782.856 1.89316
141      189.815 1 2 100 -700.45 0
142      189.815 1 2 100 -700.45 6.14607
143      189.815 1 2 100 -700.45 6.00896
144      189.815 1 2 100 -700.45 5.87185
145      189.815 1 2 100 -700.45 5.73474
146      189.815 1 2 100 -700.45 5.59762
147      189.815 1 2 100 -700.45 5.46051
148      189.815 1 2 100 -700.45 5.3234
149      189.815 1 2 100 -700.45 5.18629
150      189.815 1 2 100 -700.45 5.04917
151      189.815 1 2 100 -700.45 4.91206
152      189.815 1 2 100 -700.45 4.77495
153      189.815 1 2 100 -700.45 4.63784
154      189.815 1 2 100 -700.45 4.50072
155      189.815 1 2 100 -700.45 4.36361
156      189.815 1 2 100 -700.45 4.2265
157      189.815 1 2 100 -700.45 4.08939
158      189.815 1 2 100 -700.45 3.95227
159      189.815 1 2 100 -700.45 3.81516
160      189.815 1 2 100 -700.45 3.67805
161      189.815 1 2 100 -618.045 0
162      189.815 1 2 100 -618.045 0.618217
163      189.815 1 2 100 -618.045 1.23643
164      189.815 1 2 100 -618.045 1.85465
165      189.815 1 2 100 -618.045 2.47287
166      189.815 1 2 100 -618.045 3.09108
167      189.815 1 2 100 -618.045 3.7093
168      189.815 1 2 100 -618.045 4.32752
169      189.815 1 2 100 -618.045 4.94573
170      189.815 1 2 100 -618.045 5.56395
171      189.815 1 2 100 -618.045 6.18217
172      189.815 1 2 100 -618.045 0.517198
173      189.815 1 2 100 -618.045 1.13541
174      189.815 1 2 100 -618.045 1.75363
175      189.815 1 2 100 -618.045 2.37185
176      189.815 1 2 100 -618.045 2.99006
177      189.815 1 2 100 -618.045 3.60828
178      189.815 1 2 100 -618.045 4.2265
179      189.815 1 2 100 -618.045 4.84471
180      189.815 1 2 100 -618.045 5.46293
181      189.815 1 2 100 -535.639 0
182      189.815 1 2 100 -535.639 1.37355
183      189.815 1 2 100 -535.639 2.74709
184      189.815 1 2 100 -535.639 4.12064
185      189.815 1 2 100 -535.639 5.49418
186      189.815 1 2 100 -535.639 0.584544
187      189.815 1 2 100 -535.639 1.95809
188      189.815 1 2 100 -535.639 3.33164
189      189.815 1 2 100 -535.639 4.70518
190      189.815 1 2 100 -535.639 6.07873
191      189.815 1 2 100 -535.639 1.16909
192      189.815 1 2 100 -535.639 2.54263
193      189.815 1 2 100 -535.639 3.91618
194      189.815 1 2 100 -535.639 5.28973
195      189.815 1 2 100 -535.639 0.380086
196      189.815 1 2 100 -535.639 1.75363
197      189.815 1 2 100 -535.639 3.12718
198      189.815 1 2 100 -535.639 4.50072
199      189.815 1 2 100 -535.639 5.87427
200      189.815 1 2 100 -535.639 0.964629
201      189.815 1 2 100 -453.233 0
202      189.815 1 2 100 -453.233 2.12887
203      189.815 1 2 100 -453.233 4.25775
204      189.815 1 2 100 -453.233 0.10344
205      189.815 1 2 100 -453.233 2.23231
206      189.815 1 2 100 -453.233 4.36119
207      189.815 1 2 100 -453.233 0.206879
208      189.815 1 2 100 -453.233 2.33575
209      189.815 1 2 100 -453.233 4.46463
210      189.815 1 2 100 -453.233 0.310319
211      189.815 1 2 100 -453.233 2.43919
212      189.815 1 2 100 -453.233 4.56807
213      189.815 1 2 100 -453.233 0.413758
214      189.815 1 2 100 -453.233 2.54263
215      189.815 1 2 100 -453.233 4.67151
216      189.815 1 2 100 -453.233 0.517198
217      189.815 1 2 100 -453.233 2.64607
218      189.815 1 2 100 -453.233 4.77495
219      189.815 1 2 100 -453.233 0.620638
220      189.815 1 2 100 -453.233 2.74951
221      189.815 1 2 100 -370.827 0
222      189.815 1 2 100 -370.827 2.8842
223      189.815 1 2 100 -370.827 5.76841
224      189.815 1 2 100 -370.827 2.36943
225      189.815 1 2 100 -370.827 5.25363
226      189.815 1 2 100 -370.827 1.85465
227      189.815 1 2 100 -370.827 4.73885
228      189.815 1 2 100 -370.827 1.33987
229      189.815 1 2 100 -370.827 4.22408
230      189.815 1 2 100 -370.827 0.825096
231      189.815 1 2 100 -370.827 3.7093
232      189.815 1 2 100 -370.827 0.310319
233      189.815 1 2 100 -370.827 3.19452
234      189.815 1 2 100 -370.827 6.07873
235      189.815 1 2 100 -370.827 2.67975
236      189.815 1 2 100 -370.827 5.56395
237      189.815 1 2 100 -370.827 2.16497
238      189.815 1 2 100 -370.827 5.04917
239      189.815 1 2 100 -370.827 1.65019
240      189.815 1 2 100 -370.827 4.5344
241      189.815 1 2 100 -288.421 0
242      189.815 1 2 100 -288.421 3.63953
243      189.815 1 2 100 -288.421 0.995881
244      189.815 1 2 100 -288.421 4.63541
245      189.815 1 2 100 -288.421 1.99176
246      189.815 1 2 100 -288.421 5.6313
247      189.815 1 2 100 -288.421 2.98764
248      189.815 1 2 100 -288.421 0.343992
249      189.815 1 2 100 -288.421 3.98352
250      189.815 1 2 100 -288.421 1.33987
251      189.815 1 2 100 -288.421 4.97941
252      189.815 1 2 100 -288.421 2.33575
253      189.815 1 2 100 -288.421 5.97529
254      189.815 1 2 100 -288.421 3.33164
255      189.815 1 2 100 -288.421 0.687983
256      189.815 1 2 100 -288.421 4.32752
257      189.815 1 2 100 -288.421 1.68386
258      189.815 1 2 100 -288.421 5.3234
259      189.815 1 2 100 -288.421 2.67975
260      189.815 1 2 100 -288.421 0.0360938
261      189.815 1 2 100 -206.015 0
262      189.815 1 2 100 -206.015 4.39486
263      189.815 1 2 100 -206.015 2.50654
264      189.815 1 2 100 -206.015 0.618217
265      189.815 1 2 100 -206.015 5.01308
266      189.815 1 2 100 -206.015 3.12476
267      189.815 1 2 100 -206.015 1.23643
268      189.815 1 2 100 -206.015 5.6313
269      189.815 1 2 100 -206.015 3.74297
270      189.815 1 2 100 -206.015 1.85465
271      189.815 1 2 100 -206.015 6.24951
272      189.815 1 2 100 -206.015 4.36119
273      189.815 1 2 100 -206.015 2.47287
274      189.815 1 2 100 -206.015 0.584544
275      189.815 1 2 100 -206.015 4.97941
276      189.815 1 2 100 -206.015 3.09108
277      189.815 1 2 100 -206.015 1.20276
278      189.815 1 2 100 -206.015 5.59762
279      189.815 1 2 100 -206.015 3.7093
280      189.815 1 2 100 -206.015 1.82098
281      189.815 1 2 100 -123.609 0
282      189.815 1 2 100 -123.609 5.15019
283      189.815 1 2 100 -123.609 4.0172
284      189.815 1 2 100 -123.609 2.8842
285      189.815 1 2 100 -123.609 1.75121
286      189.815 1 2 100 -123.609 0.618217
287      189.815 1 2 100 -123.609 5.76841
288      189.815 1 2 100 -123.609 4.63541
289      189.815 1 2 100 -123.609 3.50242
290      189.815 1 2 100 -123.609 2.36943
291      189.815 1 2 100 -123.609 1.23643
292      189.815 1 2 100 -123.609 0.10344
293      189.815 1 2 100 -123.609 5.25363
294      189.815 1 2 100 -123.609 4.12064
295      189.815 1 2 100 -123.609 2.98764
296      189.815 1 2 100 -123.609 1.85465
297      189.815 1 2 100 -123.609 0.721656
298      189.815 1 2 100 -123.609 5.87185
299      189.815 1 2 100 -123.609 4.73885
300      189.815 1 2 100 -123.609 3.60586
301      189.815 1 2 100 -41.203 0
302      189.815 1 2 100 -41.203 5.90552
303      189.815 1 2 100 -41.203 5.52786
304      189.815 1 2 100 -41.203 5.15019
305      189.815 1 2 100 -41.203 4.77253
306      189.815 1 2 100 -41.203 4.39486
307      189.815 1 2 100 -41.203 4.0172
308      189.815 1 2 100 -41.203 3.63953
309      189.815 1 2 100 -41.203 3.26187
310      189.815 1 2 100 -41.203 2.8842
311      189.815 1 2 100 -41.203 2.50654
312      189.815 1 2 100 -41.203 2.12887
313      189.815 1 2 100 -41.203 1.75121
314      189.815 1 2 100 -41.203 1.37355
315      189.815 1 2 100 -41.203 0.995881
316      189.815 1 2 100 -41.203 0.618217
317      189.815 1 2 100 -41.203 0.240552
318      189.815 1 2 100 -41.203 6.14607
319      189.815 1 2 100 -41.203 5.76841
320      189.815 1 2 100 -41.203 5.39074
321      189.815 1 2 100 41.203 0
322      189.815 1 2 100 41.203 0.377665
323      189.815 1 2 100 41.203 0.755329
324      189.815 1 2 100 41.203 1.13299
325      189.815 1 2 100 41.203 1.51066
326      189.815 1 2 100 41.203 1.88832
327      189.815 1 2 100 41.203 2.26599
328      189.815 1 2 100 41.203 2.64365
329      189.815 1 2 100 41.203 3.02132
330      189.815 1 2 100 41.203 3.39898
331      189.815 1 2 100 41.203 3.77665
332      189.815 1 2 100 41.203 4.15431
333      189.815 1 2 100 41.203 4.53197
334      189.815 1 2 100 41.203 4.90964
335      189.815 1 2 100 41.203 5.2873
336      189.815 1 2 100 41.203 5.66497
337      189.815 1 2 100 41.203 6.04263
338      189.815 1 2 100 41.203 0.137112
339      189.815 1 2 100 41.203 0.514777
340      189.815 1 2 100 41.203 0.892442
341      189.815 1 2 100 123.609 0
342      189.815 1 2 100 123.609 1.13299
343      189.815 1 2 100 123.609 2.26599
344      189.815 1 2 100 123.609 3.39898
345      189.815 1 2 100 123.609 4.53197
346      189.815 1 2 100 123.609 5.66497
347      189.815 1 2 100 123.609 0.514777
348      189.815 1 2 100 123.609 1.64777
349      189.815 1 2 100 123.609 2.78076
350      189.815 1 2 100 123.609 3.91376
351      189.815 1 2 100 123.609 5.04675
352      189.815 1 2 100 123.609 6.17975
353      189.815 1 2 100 123.609 1.02955
354      189.815 1 2 100 123.609 2.16255
355      189.815 1 2 100 123.609 3.29554
356      189.815 1 2 100 123.609 4.42854
357      189.815 1 2 100 123.609 5.56153
358      189.815 1 2 100 123.609 0.411337
359      189.815 1 2 100 123.609 1.54433
360      189.815 1 2 100 123.609 2.67732
361      189.815 1 2 100 206.015 0
362      189.815 1 2 100 206.015 1.88832
363      189.815 1 2 100 206.015 3.77665
364      189.815 1 2 100 206.015 5.66497
365      189.815 1 2 100 206.015 1.27011
366      189.815 1 2 100 206.015 3.15843
367      189.815 1 2 100 206.015 5.04675
368      189.815 1 2 100 206.015 0.65189
369      189.815 1 2 100 206.015 2.54021
370      189.815 1 2 100 206.015 4.42854
371      189.815 1 2 100 206.015 0.0336729
372      189.815 1 2 100 206.015 1.922
373      189.815 1 2 100 206.015 3.81032
374      189.815 1 2 100 206.015 5.69864
375      189.815 1 2 100 206.015 1.30378
376      189.815 1 2 100 206.015 3.1921
377      189.815 1 2 100 206.015 5.08042
378      189.815 1 2 100 206.015 0.685562
379      189.815 1 2 100 206.015 2.57389
380      189.815 1 2 100 206.015 4.46221
381      189.815 1 2 100 288.421 0
382      189.815 1 2 100 288.421 2.64365
383      189.815 1 2 100 288.421 5.2873
384      189.815 1 2 100 288.421 1.64777
385      189.815 1 2 100 288.421 4.29142
386      189.815 1 2 100 288.421 0.65189
387      189.815 1 2 100 288.421 3.29554
388      189.815 1 2 100 288.421 5.93919
389      189.815 1 2 100 288.421 2.29966
390      189.815 1 2 100 288.421 4.94331
391      189.815 1 2 100 288.421 1.30378
392      189.815 1 2 100 288.421 3.94743
393      189.815 1 2 100 288.421 0.307898
394      189.815 1 2 100 288.421 2.95155
395      189.815 1 2 100 288.421 5.5952
396      189.815 1 2 100 288.421 1.95567
397      189.815 1 2 100 288.421 4.59932
398      189.815 1 2 100 288.421 0.959787
399      189.815 1 2 100 288.421 3.60344
400      189.815 1 2 100 288.421 6.24709
401      189.815 1 2 100 370.827 0
402      189.815 1 2 100 370.827 3.39898
403      189.815 1 2 100 370.827 0.514777
404      189.815 1 2 100 370.827 3.91376
405      189.815 1 2 100 370.827 1.02955
406      189.815 1 2 100 370.827 4.42854
407      189.815 1 2 100 370.827 1.54433
408      189.815 1 2 100 370.827 4.94331
409      189.815 1 2 100 370.827 2.05911
410      189.815 1 2 100 370.827 5.45809
411      189.815 1 2 100 370.827 2.57389
412      189.815 1 2 100 370.827 5.97287
413      189.815 1 2 100 370.827 3.08866
414      189.815 1 2 100 370.827 0.204458
415      189.815 1 2 100 370.827 3.60344
416      189.815 1 2 100 370.827 0.719235
417      189.815 1 2 100 370.827 4.11822
418      189.815 1 2 100 370.827 1.23401
419      189.815 1 2 100 370.827 4.63299
420      189.815 1 2 100 370.827 1.74879
421      189.815 1 2 100 453.233 0
422      189.815 1 2 100 453.233 4.15431
423      189.815 1 2 100 453.233 2.02544
424      189.815 1 2 100 453.233 6.17975
425      189.815 1 2 100 453.233 4.05087
426      189.815 1 2 100 453.233 1.922
427      189.815 1 2 100 453.233 6.07631
428      189.815 1 2 100 453.233 3.94743
429      189.815 1 2 100 453.233 1.81856
430      189.815 1 2 100 453.233 5.97287
431      189.815 1 2 100 453.233 3.84399
432      189.815 1 2 100 453.233 1.71512
433      189.815 1 2 100 453.233 5.86943
434      189.815 1 2 100 453.233 3.74055
435      189.815 1 2 100 453.233 1.61168
436      189.815 1 2 100 453.233 5.76599
437      189.815 1 2 100 453.233 3.63711
438      189.815 1 2 100 453.233 1.50824
439      189.815 1 2 100 453.233 5.66255
440      189.815 1 2 100 453.233 3.53367
441      189.815 1 2 100 535.639 0
442      189.815 1 2 100 535.639 4.90964
443      189.815 1 2 100 535.639 3.53609
444      189.815 1 2 100 535.639 2.16255
445      189.815 1 2 100 535.639 0.789002
446      189.815 1 2 100 535.639 5.69864
447      189.815 1 2 100 535.639 4.3251
448      189.815 1 2 100 535.639 2.95155
449      189.815 1 2 100 535.639 1.578
450      189.815 1 2 100 535.639 0.204458
451      189.815 1 2 100 535.639 5.1141
452      189.815 1 2 100 535.639 3.74055
453      189.815 1 2 100 535.639 2.36701
454      189.815 1 2 100 535.639 0.99346
455      189.815 1 2 100 535.639 5.9031
456      189.815 1 2 100 535.639 4.52955
457      189.815 1 2 100 535.639 3.15601
458      189.815 1 2 100 535.639 1.78246
459      189.815 1 2 100 535.639 0.408917
460      189.815 1 2 100 535.639 5.31856
461      189.815 1 2 100 618.045 0
462      189.815 1 2 100 618.045 5.66497
463      189.815 1 2 100 618.045 5.04675
464      189.815 1 2 100 618.045 4.42854
465      189.815 1 2 100 618.045 3.81032
466      189.815 1 2 100 618.045 3.1921
467      189.815 1 2 100 618.045 2.57389
468      189.815 1 2 100 618.045 1.95567
469      189.815 1 2 100 618.045 1.33745
470      189.815 1 2 100 618.045 0.719235
471      189.815 1 2 100 618.045 0.101019
472      189.815 1 2 100 618.045 5.76599
473      189.815 1 2 100 618.045 5.14777
474      189.815 1 2 100 618.045 4.52955
475      189.815 1 2 100 618.045 3.91134
476      189.815 1 2 100 618.045 3.29312
477      189.815 1 2 100 618.045 2.6749
478      189.815 1 2 100 618.045 2.05669
479      189.815 1 2 100 618.045 1.43847
480      189.815 1 2 100 618.045 0.820254
481      189.815 1 2 100 700.45 0
482      189.815 1 2 100 700.45 0.137112
483      189.815 1 2 100 700.45 0.274225
484      189.815 1 2 100 700.45 0.411337
485      189.815 1 2 100 700.45 0.54845
486      189.815 1 2 100 700.45 0.685562
487      189.815 1 2 100 700.45 0.822675
