# Pulseq sequence file
# Created by MATLAB mr toolbox

[VERSION]
major 1
minor 3
revision 0

[DEFINITIONS]
offsets_ppm -1560 -4 -3.75 -3.5 -3.25 -3 -2.75 -2.5 -2.25 -2 -1.75 -1.5 -1.25 -1 -0.75 -0.5 -0.25 0 0.25 0.5 0.75 1 1.25 1.5 1.75 2 2.25 2.5 2.75 3 3.25 3.5 3.75 4 
run_m0_scan 0 

# Format of blocks:
#  #  D RF  GX  GY  GZ ADC EXT
[BLOCKS]
  1  1  0   0   0   0  0  0
  2  0  1   0   0   0  0  0
  3  2  0   0   0   0  0  0
  4  0  2   0   0   0  0  0
  5  3  0   0   0   0  0  0
  6  0  3   0   0   0  0  0
  7  2  0   0   0   0  0  0
  8  0  4   0   0   0  0  0
  9  3  0   0   0   0  0  0
 10  0  5   0   0   0  0  0
 11  2  0   0   0   0  0  0
 12  0  6   0   0   0  0  0
 13  3  0   0   0   0  0  0
 14  0  7   0   0   0  0  0
 15  2  0   0   0   0  0  0
 16  0  8   0   0   0  0  0
 17  0  0   1   1   1  0  0
 18  0  0   0   0   0  1  0
 19  1  0   0   0   0  0  0
 20  0  9   0   0   0  0  0
 21  2  0   0   0   0  0  0
 22  0 10   0   0   0  0  0
 23  3  0   0   0   0  0  0
 24  0 11   0   0   0  0  0
 25  2  0   0   0   0  0  0
 26  0 12   0   0   0  0  0
 27  3  0   0   0   0  0  0
 28  0 13   0   0   0  0  0
 29  2  0   0   0   0  0  0
 30  0 14   0   0   0  0  0
 31  3  0   0   0   0  0  0
 32  0 15   0   0   0  0  0
 33  2  0   0   0   0  0  0
 34  0 16   0   0   0  0  0
 35  0  0   1   1   1  0  0
 36  0  0   0   0   0  1  0
 37  1  0   0   0   0  0  0
 38  0 17   0   0   0  0  0
 39  2  0   0   0   0  0  0
 40  0 18   0   0   0  0  0
 41  3  0   0   0   0  0  0
 42  0 19   0   0   0  0  0
 43  2  0   0   0   0  0  0
 44  0 20   0   0   0  0  0
 45  3  0   0   0   0  0  0
 46  0 21   0   0   0  0  0
 47  2  0   0   0   0  0  0
 48  0 22   0   0   0  0  0
 49  3  0   0   0   0  0  0
 50  0 23   0   0   0  0  0
 51  2  0   0   0   0  0  0
 52  0 24   0   0   0  0  0
 53  0  0   1   1   1  0  0
 54  0  0   0   0   0  1  0
 55  1  0   0   0   0  0  0
 56  0 25   0   0   0  0  0
 57  2  0   0   0   0  0  0
 58  0 26   0   0   0  0  0
 59  3  0   0   0   0  0  0
 60  0 27   0   0   0  0  0
 61  2  0   0   0   0  0  0
 62  0 28   0   0   0  0  0
 63  3  0   0   0   0  0  0
 64  0 29   0   0   0  0  0
 65  2  0   0   0   0  0  0
 66  0 30   0   0   0  0  0
 67  3  0   0   0   0  0  0
 68  0 31   0   0   0  0  0
 69  2  0   0   0   0  0  0
 70  0 32   0   0   0  0  0
 71  0  0   1   1   1  0  0
 72  0  0   0   0   0  1  0
 73  1  0   0   0   0  0  0
 74  0 33   0   0   0  0  0
 75  2  0   0   0   0  0  0
 76  0 34   0   0   0  0  0
 77  3  0   0   0   0  0  0
 78  0 35   0   0   0  0  0
 79  2  0   0   0   0  0  0
 80  0 36   0   0   0  0  0
 81  3  0   0   0   0  0  0
 82  0 37   0   0   0  0  0
 83  2  0   0   0   0  0  0
 84  0 38   0   0   0  0  0
 85  3  0   0   0   0  0  0
 86  0 39   0   0   0  0  0
 87  2  0   0   0   0  0  0
 88  0 40   0   0   0  0  0
 89  0  0   1   1   1  0  0
 90  0  0   0   0   0  1  0
 91  1  0   0   0   0  0  0
 92  0 41   0   0   0  0  0
 93  2  0   0   0   0  0  0
 94  0 42   0   0   0  0  0
 95  3  0   0   0   0  0  0
 96  0 43   0   0   0  0  0
 97  2  0   0   0   0  0  0
 98  0 44   0   0   0  0  0
 99  3  0   0   0   0  0  0
100  0 45   0   0   0  0  0
101  2  0   0   0   0  0  0
102  0 46   0   0   0  0  0
103  3  0   0   0   0  0  0
104  0 47   0   0   0  0  0
105  2  0   0   0   0  0  0
106  0 48   0   0   0  0  0
107  0  0   1   1   1  0  0
108  0  0   0   0   0  1  0
109  1  0   0   0   0  0  0
110  0 49   0   0   0  0  0
111  2  0   0   0   0  0  0
112  0 50   0   0   0  0  0
113  3  0   0   0   0  0  0
114  0 51   0   0   0  0  0
115  2  0   0   0   0  0  0
116  0 52   0   0   0  0  0
117  3  0   0   0   0  0  0
118  0 53   0   0   0  0  0
119  2  0   0   0   0  0  0
120  0 54   0   0   0  0  0
121  3  0   0   0   0  0  0
122  0 55   0   0   0  0  0
123  2  0   0   0   0  0  0
124  0 56   0   0   0  0  0
125  0  0   1   1   1  0  0
126  0  0   0   0   0  1  0
127  1  0   0   0   0  0  0
128  0 57   0   0   0  0  0
129  2  0   0   0   0  0  0
130  0 58   0   0   0  0  0
131  3  0   0   0   0  0  0
132  0 59   0   0   0  0  0
133  2  0   0   0   0  0  0
134  0 60   0   0   0  0  0
135  3  0   0   0   0  0  0
136  0 61   0   0   0  0  0
137  2  0   0   0   0  0  0
138  0 62   0   0   0  0  0
139  3  0   0   0   0  0  0
140  0 63   0   0   0  0  0
141  2  0   0   0   0  0  0
142  0 64   0   0   0  0  0
143  0  0   1   1   1  0  0
144  0  0   0   0   0  1  0
145  1  0   0   0   0  0  0
146  0 65   0   0   0  0  0
147  2  0   0   0   0  0  0
148  0 66   0   0   0  0  0
149  3  0   0   0   0  0  0
150  0 67   0   0   0  0  0
151  2  0   0   0   0  0  0
152  0 68   0   0   0  0  0
153  3  0   0   0   0  0  0
154  0 69   0   0   0  0  0
155  2  0   0   0   0  0  0
156  0 70   0   0   0  0  0
157  3  0   0   0   0  0  0
158  0 71   0   0   0  0  0
159  2  0   0   0   0  0  0
160  0 72   0   0   0  0  0
161  0  0   1   1   1  0  0
162  0  0   0   0   0  1  0
163  1  0   0   0   0  0  0
164  0 73   0   0   0  0  0
165  2  0   0   0   0  0  0
166  0 74   0   0   0  0  0
167  3  0   0   0   0  0  0
168  0 75   0   0   0  0  0
169  2  0   0   0   0  0  0
170  0 76   0   0   0  0  0
171  3  0   0   0   0  0  0
172  0 77   0   0   0  0  0
173  2  0   0   0   0  0  0
174  0 78   0   0   0  0  0
175  3  0   0   0   0  0  0
176  0 79   0   0   0  0  0
177  2  0   0   0   0  0  0
178  0 80   0   0   0  0  0
179  0  0   1   1   1  0  0
180  0  0   0   0   0  1  0
181  1  0   0   0   0  0  0
182  0 81   0   0   0  0  0
183  2  0   0   0   0  0  0
184  0 82   0   0   0  0  0
185  3  0   0   0   0  0  0
186  0 83   0   0   0  0  0
187  2  0   0   0   0  0  0
188  0 84   0   0   0  0  0
189  3  0   0   0   0  0  0
190  0 85   0   0   0  0  0
191  2  0   0   0   0  0  0
192  0 86   0   0   0  0  0
193  3  0   0   0   0  0  0
194  0 87   0   0   0  0  0
195  2  0   0   0   0  0  0
196  0 88   0   0   0  0  0
197  0  0   1   1   1  0  0
198  0  0   0   0   0  1  0
199  1  0   0   0   0  0  0
200  0 89   0   0   0  0  0
201  2  0   0   0   0  0  0
202  0 90   0   0   0  0  0
203  3  0   0   0   0  0  0
204  0 91   0   0   0  0  0
205  2  0   0   0   0  0  0
206  0 92   0   0   0  0  0
207  3  0   0   0   0  0  0
208  0 93   0   0   0  0  0
209  2  0   0   0   0  0  0
210  0 94   0   0   0  0  0
211  3  0   0   0   0  0  0
212  0 95   0   0   0  0  0
213  2  0   0   0   0  0  0
214  0 96   0   0   0  0  0
215  0  0   1   1   1  0  0
216  0  0   0   0   0  1  0
217  1  0   0   0   0  0  0
218  0 97   0   0   0  0  0
219  2  0   0   0   0  0  0
220  0 98   0   0   0  0  0
221  3  0   0   0   0  0  0
222  0 99   0   0   0  0  0
223  2  0   0   0   0  0  0
224  0 100   0   0   0  0  0
225  3  0   0   0   0  0  0
226  0 101   0   0   0  0  0
227  2  0   0   0   0  0  0
228  0 102   0   0   0  0  0
229  3  0   0   0   0  0  0
230  0 103   0   0   0  0  0
231  2  0   0   0   0  0  0
232  0 104   0   0   0  0  0
233  0  0   1   1   1  0  0
234  0  0   0   0   0  1  0
235  1  0   0   0   0  0  0
236  0 105   0   0   0  0  0
237  2  0   0   0   0  0  0
238  0 106   0   0   0  0  0
239  3  0   0   0   0  0  0
240  0 107   0   0   0  0  0
241  2  0   0   0   0  0  0
242  0 108   0   0   0  0  0
243  3  0   0   0   0  0  0
244  0 109   0   0   0  0  0
245  2  0   0   0   0  0  0
246  0 110   0   0   0  0  0
247  3  0   0   0   0  0  0
248  0 111   0   0   0  0  0
249  2  0   0   0   0  0  0
250  0 112   0   0   0  0  0
251  0  0   1   1   1  0  0
252  0  0   0   0   0  1  0
253  1  0   0   0   0  0  0
254  0 113   0   0   0  0  0
255  2  0   0   0   0  0  0
256  0 114   0   0   0  0  0
257  3  0   0   0   0  0  0
258  0 115   0   0   0  0  0
259  2  0   0   0   0  0  0
260  0 116   0   0   0  0  0
261  3  0   0   0   0  0  0
262  0 117   0   0   0  0  0
263  2  0   0   0   0  0  0
264  0 118   0   0   0  0  0
265  3  0   0   0   0  0  0
266  0 119   0   0   0  0  0
267  2  0   0   0   0  0  0
268  0 120   0   0   0  0  0
269  0  0   1   1   1  0  0
270  0  0   0   0   0  1  0
271  1  0   0   0   0  0  0
272  0 121   0   0   0  0  0
273  2  0   0   0   0  0  0
274  0 122   0   0   0  0  0
275  3  0   0   0   0  0  0
276  0 123   0   0   0  0  0
277  2  0   0   0   0  0  0
278  0 124   0   0   0  0  0
279  3  0   0   0   0  0  0
280  0 125   0   0   0  0  0
281  2  0   0   0   0  0  0
282  0 126   0   0   0  0  0
283  3  0   0   0   0  0  0
284  0 127   0   0   0  0  0
285  2  0   0   0   0  0  0
286  0 128   0   0   0  0  0
287  0  0   1   1   1  0  0
288  0  0   0   0   0  1  0
289  1  0   0   0   0  0  0
290  0 129   0   0   0  0  0
291  2  0   0   0   0  0  0
292  0 130   0   0   0  0  0
293  3  0   0   0   0  0  0
294  0 131   0   0   0  0  0
295  2  0   0   0   0  0  0
296  0 132   0   0   0  0  0
297  3  0   0   0   0  0  0
298  0 133   0   0   0  0  0
299  2  0   0   0   0  0  0
300  0 134   0   0   0  0  0
301  3  0   0   0   0  0  0
302  0 135   0   0   0  0  0
303  2  0   0   0   0  0  0
304  0 136   0   0   0  0  0
305  0  0   1   1   1  0  0
306  0  0   0   0   0  1  0
307  1  0   0   0   0  0  0
308  0 137   0   0   0  0  0
309  2  0   0   0   0  0  0
310  0 137   0   0   0  0  0
311  3  0   0   0   0  0  0
312  0 137   0   0   0  0  0
313  2  0   0   0   0  0  0
314  0 137   0   0   0  0  0
315  3  0   0   0   0  0  0
316  0 137   0   0   0  0  0
317  2  0   0   0   0  0  0
318  0 137   0   0   0  0  0
319  3  0   0   0   0  0  0
320  0 137   0   0   0  0  0
321  2  0   0   0   0  0  0
322  0 137   0   0   0  0  0
323  0  0   1   1   1  0  0
324  0  0   0   0   0  1  0
325  1  0   0   0   0  0  0
326  0 138   0   0   0  0  0
327  2  0   0   0   0  0  0
328  0 139   0   0   0  0  0
329  3  0   0   0   0  0  0
330  0 140   0   0   0  0  0
331  2  0   0   0   0  0  0
332  0 141   0   0   0  0  0
333  3  0   0   0   0  0  0
334  0 142   0   0   0  0  0
335  2  0   0   0   0  0  0
336  0 143   0   0   0  0  0
337  3  0   0   0   0  0  0
338  0 144   0   0   0  0  0
339  2  0   0   0   0  0  0
340  0 145   0   0   0  0  0
341  0  0   1   1   1  0  0
342  0  0   0   0   0  1  0
343  1  0   0   0   0  0  0
344  0 146   0   0   0  0  0
345  2  0   0   0   0  0  0
346  0 147   0   0   0  0  0
347  3  0   0   0   0  0  0
348  0 148   0   0   0  0  0
349  2  0   0   0   0  0  0
350  0 149   0   0   0  0  0
351  3  0   0   0   0  0  0
352  0 150   0   0   0  0  0
353  2  0   0   0   0  0  0
354  0 151   0   0   0  0  0
355  3  0   0   0   0  0  0
356  0 152   0   0   0  0  0
357  2  0   0   0   0  0  0
358  0 153   0   0   0  0  0
359  0  0   1   1   1  0  0
360  0  0   0   0   0  1  0
361  1  0   0   0   0  0  0
362  0 154   0   0   0  0  0
363  2  0   0   0   0  0  0
364  0 155   0   0   0  0  0
365  3  0   0   0   0  0  0
366  0 156   0   0   0  0  0
367  2  0   0   0   0  0  0
368  0 157   0   0   0  0  0
369  3  0   0   0   0  0  0
370  0 158   0   0   0  0  0
371  2  0   0   0   0  0  0
372  0 159   0   0   0  0  0
373  3  0   0   0   0  0  0
374  0 160   0   0   0  0  0
375  2  0   0   0   0  0  0
376  0 161   0   0   0  0  0
377  0  0   1   1   1  0  0
378  0  0   0   0   0  1  0
379  1  0   0   0   0  0  0
380  0 162   0   0   0  0  0
381  2  0   0   0   0  0  0
382  0 163   0   0   0  0  0
383  3  0   0   0   0  0  0
384  0 164   0   0   0  0  0
385  2  0   0   0   0  0  0
386  0 165   0   0   0  0  0
387  3  0   0   0   0  0  0
388  0 166   0   0   0  0  0
389  2  0   0   0   0  0  0
390  0 167   0   0   0  0  0
391  3  0   0   0   0  0  0
392  0 168   0   0   0  0  0
393  2  0   0   0   0  0  0
394  0 169   0   0   0  0  0
395  0  0   1   1   1  0  0
396  0  0   0   0   0  1  0
397  1  0   0   0   0  0  0
398  0 170   0   0   0  0  0
399  2  0   0   0   0  0  0
400  0 171   0   0   0  0  0
401  3  0   0   0   0  0  0
402  0 172   0   0   0  0  0
403  2  0   0   0   0  0  0
404  0 173   0   0   0  0  0
405  3  0   0   0   0  0  0
406  0 174   0   0   0  0  0
407  2  0   0   0   0  0  0
408  0 175   0   0   0  0  0
409  3  0   0   0   0  0  0
410  0 176   0   0   0  0  0
411  2  0   0   0   0  0  0
412  0 177   0   0   0  0  0
413  0  0   1   1   1  0  0
414  0  0   0   0   0  1  0
415  1  0   0   0   0  0  0
416  0 178   0   0   0  0  0
417  2  0   0   0   0  0  0
418  0 179   0   0   0  0  0
419  3  0   0   0   0  0  0
420  0 180   0   0   0  0  0
421  2  0   0   0   0  0  0
422  0 181   0   0   0  0  0
423  3  0   0   0   0  0  0
424  0 182   0   0   0  0  0
425  2  0   0   0   0  0  0
426  0 183   0   0   0  0  0
427  3  0   0   0   0  0  0
428  0 184   0   0   0  0  0
429  2  0   0   0   0  0  0
430  0 185   0   0   0  0  0
431  0  0   1   1   1  0  0
432  0  0   0   0   0  1  0
433  1  0   0   0   0  0  0
434  0 186   0   0   0  0  0
435  2  0   0   0   0  0  0
436  0 187   0   0   0  0  0
437  3  0   0   0   0  0  0
438  0 188   0   0   0  0  0
439  2  0   0   0   0  0  0
440  0 189   0   0   0  0  0
441  3  0   0   0   0  0  0
442  0 190   0   0   0  0  0
443  2  0   0   0   0  0  0
444  0 191   0   0   0  0  0
445  3  0   0   0   0  0  0
446  0 192   0   0   0  0  0
447  2  0   0   0   0  0  0
448  0 193   0   0   0  0  0
449  0  0   1   1   1  0  0
450  0  0   0   0   0  1  0
451  1  0   0   0   0  0  0
452  0 194   0   0   0  0  0
453  2  0   0   0   0  0  0
454  0 195   0   0   0  0  0
455  3  0   0   0   0  0  0
456  0 196   0   0   0  0  0
457  2  0   0   0   0  0  0
458  0 197   0   0   0  0  0
459  3  0   0   0   0  0  0
460  0 198   0   0   0  0  0
461  2  0   0   0   0  0  0
462  0 199   0   0   0  0  0
463  3  0   0   0   0  0  0
464  0 200   0   0   0  0  0
465  2  0   0   0   0  0  0
466  0 201   0   0   0  0  0
467  0  0   1   1   1  0  0
468  0  0   0   0   0  1  0
469  1  0   0   0   0  0  0
470  0 202   0   0   0  0  0
471  2  0   0   0   0  0  0
472  0 203   0   0   0  0  0
473  3  0   0   0   0  0  0
474  0 204   0   0   0  0  0
475  2  0   0   0   0  0  0
476  0 205   0   0   0  0  0
477  3  0   0   0   0  0  0
478  0 206   0   0   0  0  0
479  2  0   0   0   0  0  0
480  0 207   0   0   0  0  0
481  3  0   0   0   0  0  0
482  0 208   0   0   0  0  0
483  2  0   0   0   0  0  0
484  0 209   0   0   0  0  0
485  0  0   1   1   1  0  0
486  0  0   0   0   0  1  0
487  1  0   0   0   0  0  0
488  0 210   0   0   0  0  0
489  2  0   0   0   0  0  0
490  0 211   0   0   0  0  0
491  3  0   0   0   0  0  0
492  0 212   0   0   0  0  0
493  2  0   0   0   0  0  0
494  0 213   0   0   0  0  0
495  3  0   0   0   0  0  0
496  0 214   0   0   0  0  0
497  2  0   0   0   0  0  0
498  0 215   0   0   0  0  0
499  3  0   0   0   0  0  0
500  0 216   0   0   0  0  0
501  2  0   0   0   0  0  0
502  0 217   0   0   0  0  0
503  0  0   1   1   1  0  0
504  0  0   0   0   0  1  0
505  1  0   0   0   0  0  0
506  0 218   0   0   0  0  0
507  2  0   0   0   0  0  0
508  0 219   0   0   0  0  0
509  3  0   0   0   0  0  0
510  0 220   0   0   0  0  0
511  2  0   0   0   0  0  0
512  0 221   0   0   0  0  0
513  3  0   0   0   0  0  0
514  0 222   0   0   0  0  0
515  2  0   0   0   0  0  0
516  0 223   0   0   0  0  0
517  3  0   0   0   0  0  0
518  0 224   0   0   0  0  0
519  2  0   0   0   0  0  0
520  0 225   0   0   0  0  0
521  0  0   1   1   1  0  0
522  0  0   0   0   0  1  0
523  1  0   0   0   0  0  0
524  0 226   0   0   0  0  0
525  2  0   0   0   0  0  0
526  0 227   0   0   0  0  0
527  3  0   0   0   0  0  0
528  0 228   0   0   0  0  0
529  2  0   0   0   0  0  0
530  0 229   0   0   0  0  0
531  3  0   0   0   0  0  0
532  0 230   0   0   0  0  0
533  2  0   0   0   0  0  0
534  0 231   0   0   0  0  0
535  3  0   0   0   0  0  0
536  0 232   0   0   0  0  0
537  2  0   0   0   0  0  0
538  0 233   0   0   0  0  0
539  0  0   1   1   1  0  0
540  0  0   0   0   0  1  0
541  1  0   0   0   0  0  0
542  0 234   0   0   0  0  0
543  2  0   0   0   0  0  0
544  0 235   0   0   0  0  0
545  3  0   0   0   0  0  0
546  0 236   0   0   0  0  0
547  2  0   0   0   0  0  0
548  0 237   0   0   0  0  0
549  3  0   0   0   0  0  0
550  0 238   0   0   0  0  0
551  2  0   0   0   0  0  0
552  0 239   0   0   0  0  0
553  3  0   0   0   0  0  0
554  0 240   0   0   0  0  0
555  2  0   0   0   0  0  0
556  0 241   0   0   0  0  0
557  0  0   1   1   1  0  0
558  0  0   0   0   0  1  0
559  1  0   0   0   0  0  0
560  0 242   0   0   0  0  0
561  2  0   0   0   0  0  0
562  0 243   0   0   0  0  0
563  3  0   0   0   0  0  0
564  0 244   0   0   0  0  0
565  2  0   0   0   0  0  0
566  0 245   0   0   0  0  0
567  3  0   0   0   0  0  0
568  0 246   0   0   0  0  0
569  2  0   0   0   0  0  0
570  0 247   0   0   0  0  0
571  3  0   0   0   0  0  0
572  0 248   0   0   0  0  0
573  2  0   0   0   0  0  0
574  0 249   0   0   0  0  0
575  0  0   1   1   1  0  0
576  0  0   0   0   0  1  0
577  1  0   0   0   0  0  0
578  0 250   0   0   0  0  0
579  2  0   0   0   0  0  0
580  0 251   0   0   0  0  0
581  3  0   0   0   0  0  0
582  0 252   0   0   0  0  0
583  2  0   0   0   0  0  0
584  0 253   0   0   0  0  0
585  3  0   0   0   0  0  0
586  0 254   0   0   0  0  0
587  2  0   0   0   0  0  0
588  0 255   0   0   0  0  0
589  3  0   0   0   0  0  0
590  0 256   0   0   0  0  0
591  2  0   0   0   0  0  0
592  0 257   0   0   0  0  0
593  0  0   1   1   1  0  0
594  0  0   0   0   0  1  0
595  1  0   0   0   0  0  0
596  0 258   0   0   0  0  0
597  2  0   0   0   0  0  0
598  0 259   0   0   0  0  0
599  3  0   0   0   0  0  0
600  0 260   0   0   0  0  0
601  2  0   0   0   0  0  0
602  0 261   0   0   0  0  0
603  3  0   0   0   0  0  0
604  0 262   0   0   0  0  0
605  2  0   0   0   0  0  0
606  0 263   0   0   0  0  0
607  3  0   0   0   0  0  0
608  0 264   0   0   0  0  0
609  2  0   0   0   0  0  0
610  0 265   0   0   0  0  0
611  0  0   1   1   1  0  0
612  0  0   0   0   0  1  0

# Format of RF events:
# id amplitude mag_id phase_id delay freq phase
# ..        Hz   ....     ....    us   Hz   rad
[RF]
1      85.1528 1 2 100 -199258 0
2      85.1528 1 2 100 -199258 1.53812
3      85.1528 1 2 100 -199258 3.07625
4      85.1528 1 2 100 -199258 4.61437
5      85.1528 1 2 100 -199258 6.1525
6      85.1528 1 2 100 -199258 1.40743
7      85.1528 1 2 100 -199258 2.94556
8      85.1528 1 2 100 -199258 4.48368
9      85.1528 1 2 100 -510.917 0
10      85.1528 1 2 100 -510.917 5.70714
11      85.1528 1 2 100 -510.917 5.1311
12      85.1528 1 2 100 -510.917 4.55506
13      85.1528 1 2 100 -510.917 3.97902
14      85.1528 1 2 100 -510.917 3.40297
15      85.1528 1 2 100 -510.917 2.82693
16      85.1528 1 2 100 -510.917 2.25089
17      85.1528 1 2 100 -478.984 0
18      85.1528 1 2 100 -478.984 0.638057
19      85.1528 1 2 100 -478.984 1.27611
20      85.1528 1 2 100 -478.984 1.91417
21      85.1528 1 2 100 -478.984 2.55223
22      85.1528 1 2 100 -478.984 3.19029
23      85.1528 1 2 100 -478.984 3.82834
24      85.1528 1 2 100 -478.984 4.4664
25      85.1528 1 2 100 -447.052 0
26      85.1528 1 2 100 -447.052 1.85216
27      85.1528 1 2 100 -447.052 3.70431
28      85.1528 1 2 100 -447.052 5.55647
29      85.1528 1 2 100 -447.052 1.12544
30      85.1528 1 2 100 -447.052 2.9776
31      85.1528 1 2 100 -447.052 4.82976
32      85.1528 1 2 100 -447.052 0.398731
33      85.1528 1 2 100 -415.12 0
34      85.1528 1 2 100 -415.12 3.06626
35      85.1528 1 2 100 -415.12 6.13251
36      85.1528 1 2 100 -415.12 2.91559
37      85.1528 1 2 100 -415.12 5.98184
38      85.1528 1 2 100 -415.12 2.76492
39      85.1528 1 2 100 -415.12 5.83117
40      85.1528 1 2 100 -415.12 2.61424
41      85.1528 1 2 100 -383.188 0
42      85.1528 1 2 100 -383.188 4.28036
43      85.1528 1 2 100 -383.188 2.27753
44      85.1528 1 2 100 -383.188 0.274701
45      85.1528 1 2 100 -383.188 4.55506
46      85.1528 1 2 100 -383.188 2.55223
47      85.1528 1 2 100 -383.188 0.549402
48      85.1528 1 2 100 -383.188 4.82976
49      85.1528 1 2 100 -351.255 0
50      85.1528 1 2 100 -351.255 5.49446
51      85.1528 1 2 100 -351.255 4.70573
52      85.1528 1 2 100 -351.255 3.917
53      85.1528 1 2 100 -351.255 3.12827
54      85.1528 1 2 100 -351.255 2.33954
55      85.1528 1 2 100 -351.255 1.55082
56      85.1528 1 2 100 -351.255 0.762088
57      85.1528 1 2 100 -319.323 0
58      85.1528 1 2 100 -319.323 0.425372
59      85.1528 1 2 100 -319.323 0.850743
60      85.1528 1 2 100 -319.323 1.27611
61      85.1528 1 2 100 -319.323 1.70149
62      85.1528 1 2 100 -319.323 2.12686
63      85.1528 1 2 100 -319.323 2.55223
64      85.1528 1 2 100 -319.323 2.9776
65      85.1528 1 2 100 -287.391 0
66      85.1528 1 2 100 -287.391 1.63947
67      85.1528 1 2 100 -287.391 3.27894
68      85.1528 1 2 100 -287.391 4.91841
69      85.1528 1 2 100 -287.391 0.274701
70      85.1528 1 2 100 -287.391 1.91417
71      85.1528 1 2 100 -287.391 3.55364
72      85.1528 1 2 100 -287.391 5.19312
73      85.1528 1 2 100 -255.458 0
74      85.1528 1 2 100 -255.458 2.85357
75      85.1528 1 2 100 -255.458 5.70714
76      85.1528 1 2 100 -255.458 2.27753
77      85.1528 1 2 100 -255.458 5.1311
78      85.1528 1 2 100 -255.458 1.70149
79      85.1528 1 2 100 -255.458 4.55506
80      85.1528 1 2 100 -255.458 1.12544
81      85.1528 1 2 100 -223.526 0
82      85.1528 1 2 100 -223.526 4.06767
83      85.1528 1 2 100 -223.526 1.85216
84      85.1528 1 2 100 -223.526 5.91983
85      85.1528 1 2 100 -223.526 3.70431
86      85.1528 1 2 100 -223.526 1.4888
87      85.1528 1 2 100 -223.526 5.55647
88      85.1528 1 2 100 -223.526 3.34096
89      85.1528 1 2 100 -191.594 0
90      85.1528 1 2 100 -191.594 5.28177
91      85.1528 1 2 100 -191.594 4.28036
92      85.1528 1 2 100 -191.594 3.27894
93      85.1528 1 2 100 -191.594 2.27753
94      85.1528 1 2 100 -191.594 1.27611
95      85.1528 1 2 100 -191.594 0.274701
96      85.1528 1 2 100 -191.594 5.55647
97      85.1528 1 2 100 -159.661 0
98      85.1528 1 2 100 -159.661 0.212686
99      85.1528 1 2 100 -159.661 0.425372
100      85.1528 1 2 100 -159.661 0.638057
101      85.1528 1 2 100 -159.661 0.850743
102      85.1528 1 2 100 -159.661 1.06343
103      85.1528 1 2 100 -159.661 1.27611
104      85.1528 1 2 100 -159.661 1.4888
105      85.1528 1 2 100 -127.729 0
106      85.1528 1 2 100 -127.729 1.42679
107      85.1528 1 2 100 -127.729 2.85357
108      85.1528 1 2 100 -127.729 4.28036
109      85.1528 1 2 100 -127.729 5.70714
110      85.1528 1 2 100 -127.729 0.850743
111      85.1528 1 2 100 -127.729 2.27753
112      85.1528 1 2 100 -127.729 3.70431
113      85.1528 1 2 100 -95.7969 0
114      85.1528 1 2 100 -95.7969 2.64089
115      85.1528 1 2 100 -95.7969 5.28177
116      85.1528 1 2 100 -95.7969 1.63947
117      85.1528 1 2 100 -95.7969 4.28036
118      85.1528 1 2 100 -95.7969 0.638057
119      85.1528 1 2 100 -95.7969 3.27894
120      85.1528 1 2 100 -95.7969 5.91983
121      85.1528 1 2 100 -63.8646 0
122      85.1528 1 2 100 -63.8646 3.85499
123      85.1528 1 2 100 -63.8646 1.42679
124      85.1528 1 2 100 -63.8646 5.28177
125      85.1528 1 2 100 -63.8646 2.85357
126      85.1528 1 2 100 -63.8646 0.425372
127      85.1528 1 2 100 -63.8646 4.28036
128      85.1528 1 2 100 -63.8646 1.85216
129      85.1528 1 2 100 -31.9323 0
130      85.1528 1 2 100 -31.9323 5.06909
131      85.1528 1 2 100 -31.9323 3.85499
132      85.1528 1 2 100 -31.9323 2.64089
133      85.1528 1 2 100 -31.9323 1.42679
134      85.1528 1 2 100 -31.9323 0.212686
135      85.1528 1 2 100 -31.9323 5.28177
136      85.1528 1 2 100 -31.9323 4.06767
137      85.1528 1 2 100 0 0
138      85.1528 1 2 100 31.9323 0
139      85.1528 1 2 100 31.9323 1.2141
140      85.1528 1 2 100 31.9323 2.4282
141      85.1528 1 2 100 31.9323 3.6423
142      85.1528 1 2 100 31.9323 4.8564
143      85.1528 1 2 100 31.9323 6.0705
144      85.1528 1 2 100 31.9323 1.00141
145      85.1528 1 2 100 31.9323 2.21551
146      85.1528 1 2 100 63.8646 0
147      85.1528 1 2 100 63.8646 2.4282
148      85.1528 1 2 100 63.8646 4.8564
149      85.1528 1 2 100 63.8646 1.00141
150      85.1528 1 2 100 63.8646 3.42961
151      85.1528 1 2 100 63.8646 5.85781
152      85.1528 1 2 100 63.8646 2.00283
153      85.1528 1 2 100 63.8646 4.43103
154      85.1528 1 2 100 95.7969 0
155      85.1528 1 2 100 95.7969 3.6423
156      85.1528 1 2 100 95.7969 1.00141
157      85.1528 1 2 100 95.7969 4.64371
158      85.1528 1 2 100 95.7969 2.00283
159      85.1528 1 2 100 95.7969 5.64513
160      85.1528 1 2 100 95.7969 3.00424
161      85.1528 1 2 100 95.7969 0.363357
162      85.1528 1 2 100 127.729 0
163      85.1528 1 2 100 127.729 4.8564
164      85.1528 1 2 100 127.729 3.42961
165      85.1528 1 2 100 127.729 2.00283
166      85.1528 1 2 100 127.729 0.576042
167      85.1528 1 2 100 127.729 5.43244
168      85.1528 1 2 100 127.729 4.00566
169      85.1528 1 2 100 127.729 2.57887
170      85.1528 1 2 100 159.661 0
171      85.1528 1 2 100 159.661 6.0705
172      85.1528 1 2 100 159.661 5.85781
173      85.1528 1 2 100 159.661 5.64513
174      85.1528 1 2 100 159.661 5.43244
175      85.1528 1 2 100 159.661 5.21976
176      85.1528 1 2 100 159.661 5.00707
177      85.1528 1 2 100 159.661 4.79438
178      85.1528 1 2 100 191.594 0
179      85.1528 1 2 100 191.594 1.00141
180      85.1528 1 2 100 191.594 2.00283
181      85.1528 1 2 100 191.594 3.00424
182      85.1528 1 2 100 191.594 4.00566
183      85.1528 1 2 100 191.594 5.00707
184      85.1528 1 2 100 191.594 6.00848
185      85.1528 1 2 100 191.594 0.726713
186      85.1528 1 2 100 223.526 0
187      85.1528 1 2 100 223.526 2.21551
188      85.1528 1 2 100 223.526 4.43103
189      85.1528 1 2 100 223.526 0.363357
190      85.1528 1 2 100 223.526 2.57887
191      85.1528 1 2 100 223.526 4.79438
192      85.1528 1 2 100 223.526 0.726713
193      85.1528 1 2 100 223.526 2.94223
194      85.1528 1 2 100 255.458 0
195      85.1528 1 2 100 255.458 3.42961
196      85.1528 1 2 100 255.458 0.576042
197      85.1528 1 2 100 255.458 4.00566
198      85.1528 1 2 100 255.458 1.15208
199      85.1528 1 2 100 255.458 4.5817
200      85.1528 1 2 100 255.458 1.72813
201      85.1528 1 2 100 255.458 5.15774
202      85.1528 1 2 100 287.391 0
203      85.1528 1 2 100 287.391 4.64371
204      85.1528 1 2 100 287.391 3.00424
205      85.1528 1 2 100 287.391 1.36477
206      85.1528 1 2 100 287.391 6.00848
207      85.1528 1 2 100 287.391 4.36901
208      85.1528 1 2 100 287.391 2.72954
209      85.1528 1 2 100 287.391 1.09007
210      85.1528 1 2 100 319.323 0
211      85.1528 1 2 100 319.323 5.85781
212      85.1528 1 2 100 319.323 5.43244
213      85.1528 1 2 100 319.323 5.00707
214      85.1528 1 2 100 319.323 4.5817
215      85.1528 1 2 100 319.323 4.15633
216      85.1528 1 2 100 319.323 3.73096
217      85.1528 1 2 100 319.323 3.30558
218      85.1528 1 2 100 351.255 0
219      85.1528 1 2 100 351.255 0.788728
220      85.1528 1 2 100 351.255 1.57746
221      85.1528 1 2 100 351.255 2.36618
222      85.1528 1 2 100 351.255 3.15491
223      85.1528 1 2 100 351.255 3.94364
224      85.1528 1 2 100 351.255 4.73237
225      85.1528 1 2 100 351.255 5.5211
226      85.1528 1 2 100 383.188 0
227      85.1528 1 2 100 383.188 2.00283
228      85.1528 1 2 100 383.188 4.00566
229      85.1528 1 2 100 383.188 6.00848
230      85.1528 1 2 100 383.188 1.72813
231      85.1528 1 2 100 383.188 3.73096
232      85.1528 1 2 100 383.188 5.73378
233      85.1528 1 2 100 383.188 1.45343
234      85.1528 1 2 100 415.12 0
235      85.1528 1 2 100 415.12 3.21693
236      85.1528 1 2 100 415.12 0.150671
237      85.1528 1 2 100 415.12 3.3676
238      85.1528 1 2 100 415.12 0.301342
239      85.1528 1 2 100 415.12 3.51827
240      85.1528 1 2 100 415.12 0.452012
241      85.1528 1 2 100 415.12 3.66894
242      85.1528 1 2 100 447.052 0
243      85.1528 1 2 100 447.052 4.43103
244      85.1528 1 2 100 447.052 2.57887
245      85.1528 1 2 100 447.052 0.726713
246      85.1528 1 2 100 447.052 5.15774
247      85.1528 1 2 100 447.052 3.30558
248      85.1528 1 2 100 447.052 1.45343
249      85.1528 1 2 100 447.052 5.88445
250      85.1528 1 2 100 478.984 0
251      85.1528 1 2 100 478.984 5.64513
252      85.1528 1 2 100 478.984 5.00707
253      85.1528 1 2 100 478.984 4.36901
254      85.1528 1 2 100 478.984 3.73096
255      85.1528 1 2 100 478.984 3.0929
256      85.1528 1 2 100 478.984 2.45484
257      85.1528 1 2 100 478.984 1.81678
258      85.1528 1 2 100 510.917 0
259      85.1528 1 2 100 510.917 0.576042
260      85.1528 1 2 100 510.917 1.15208
261      85.1528 1 2 100 510.917 1.72813
262      85.1528 1 2 100 510.917 2.30417
263      85.1528 1 2 100 510.917 2.88021
264      85.1528 1 2 100 510.917 3.45625
265      85.1528 1 2 100 510.917 4.0323

# Format of trapezoid gradients:
# id amplitude rise flat fall delay
# ..      Hz/m   us   us   us    us
[TRAP]
 1  1.36243e+06 1000 4500 1000   0

# Format of ADC events:
# id num dwell delay freq phase
# ..  ..    ns    us   Hz   rad
[ADC]
1 1 1000000 0 0 0

# Format of delays:
# id delay (us)
[DELAYS]
1 3500000
2 1000
3 10000

# Sequence Shapes
[SHAPES]

shape_id 1
num_samples 100030
1
0
0
99997
-1
0
0
27

shape_id 2
num_samples 100030
0
0
100028

