# Pulseq sequence file
# Created by MATLAB mr toolbox

[VERSION]
major 1
minor 3
revision 0

[DEFINITIONS]
offsets_ppm -1560 -4 -3.75 -3.5 -3.25 -3 -2.75 -2.5 -2.25 -2 -1.75 -1.5 -1.25 -1 -0.75 -0.5 -0.25 0 0.25 0.5 0.75 1 1.25 1.5 1.75 2 2.25 2.5 2.75 3 3.25 3.5 3.75 4 
run_m0_scan 0 

# Format of blocks:
#  #  D RF  GX  GY  GZ ADC EXT
[BLOCKS]
   1  1  0   0   0   0  0  0
   2  0  1   0   0   0  0  0
   3  2  0   0   0   0  0  0
   4  0  2   0   0   0  0  0
   5  2  0   0   0   0  0  0
   6  0  3   0   0   0  0  0
   7  2  0   0   0   0  0  0
   8  0  4   0   0   0  0  0
   9  2  0   0   0   0  0  0
  10  0  5   0   0   0  0  0
  11  2  0   0   0   0  0  0
  12  0  6   0   0   0  0  0
  13  2  0   0   0   0  0  0
  14  0  7   0   0   0  0  0
  15  2  0   0   0   0  0  0
  16  0  8   0   0   0  0  0
  17  2  0   0   0   0  0  0
  18  0  9   0   0   0  0  0
  19  2  0   0   0   0  0  0
  20  0 10   0   0   0  0  0
  21  2  0   0   0   0  0  0
  22  0 11   0   0   0  0  0
  23  2  0   0   0   0  0  0
  24  0 12   0   0   0  0  0
  25  2  0   0   0   0  0  0
  26  0 13   0   0   0  0  0
  27  2  0   0   0   0  0  0
  28  0 14   0   0   0  0  0
  29  2  0   0   0   0  0  0
  30  0 15   0   0   0  0  0
  31  2  0   0   0   0  0  0
  32  0 16   0   0   0  0  0
  33  2  0   0   0   0  0  0
  34  0 17   0   0   0  0  0
  35  2  0   0   0   0  0  0
  36  0 18   0   0   0  0  0
  37  2  0   0   0   0  0  0
  38  0 19   0   0   0  0  0
  39  2  0   0   0   0  0  0
  40  0 20   0   0   0  0  0
  41  0  0   1   1   1  0  0
  42  0  0   0   0   0  1  0
  43  1  0   0   0   0  0  0
  44  0 21   0   0   0  0  0
  45  2  0   0   0   0  0  0
  46  0 22   0   0   0  0  0
  47  2  0   0   0   0  0  0
  48  0 23   0   0   0  0  0
  49  2  0   0   0   0  0  0
  50  0 24   0   0   0  0  0
  51  2  0   0   0   0  0  0
  52  0 25   0   0   0  0  0
  53  2  0   0   0   0  0  0
  54  0 26   0   0   0  0  0
  55  2  0   0   0   0  0  0
  56  0 27   0   0   0  0  0
  57  2  0   0   0   0  0  0
  58  0 28   0   0   0  0  0
  59  2  0   0   0   0  0  0
  60  0 29   0   0   0  0  0
  61  2  0   0   0   0  0  0
  62  0 30   0   0   0  0  0
  63  2  0   0   0   0  0  0
  64  0 31   0   0   0  0  0
  65  2  0   0   0   0  0  0
  66  0 32   0   0   0  0  0
  67  2  0   0   0   0  0  0
  68  0 33   0   0   0  0  0
  69  2  0   0   0   0  0  0
  70  0 34   0   0   0  0  0
  71  2  0   0   0   0  0  0
  72  0 35   0   0   0  0  0
  73  2  0   0   0   0  0  0
  74  0 36   0   0   0  0  0
  75  2  0   0   0   0  0  0
  76  0 37   0   0   0  0  0
  77  2  0   0   0   0  0  0
  78  0 38   0   0   0  0  0
  79  2  0   0   0   0  0  0
  80  0 39   0   0   0  0  0
  81  2  0   0   0   0  0  0
  82  0 40   0   0   0  0  0
  83  0  0   1   1   1  0  0
  84  0  0   0   0   0  1  0
  85  1  0   0   0   0  0  0
  86  0 41   0   0   0  0  0
  87  2  0   0   0   0  0  0
  88  0 42   0   0   0  0  0
  89  2  0   0   0   0  0  0
  90  0 43   0   0   0  0  0
  91  2  0   0   0   0  0  0
  92  0 44   0   0   0  0  0
  93  2  0   0   0   0  0  0
  94  0 45   0   0   0  0  0
  95  2  0   0   0   0  0  0
  96  0 46   0   0   0  0  0
  97  2  0   0   0   0  0  0
  98  0 47   0   0   0  0  0
  99  2  0   0   0   0  0  0
 100  0 48   0   0   0  0  0
 101  2  0   0   0   0  0  0
 102  0 49   0   0   0  0  0
 103  2  0   0   0   0  0  0
 104  0 50   0   0   0  0  0
 105  2  0   0   0   0  0  0
 106  0 51   0   0   0  0  0
 107  2  0   0   0   0  0  0
 108  0 52   0   0   0  0  0
 109  2  0   0   0   0  0  0
 110  0 53   0   0   0  0  0
 111  2  0   0   0   0  0  0
 112  0 54   0   0   0  0  0
 113  2  0   0   0   0  0  0
 114  0 55   0   0   0  0  0
 115  2  0   0   0   0  0  0
 116  0 56   0   0   0  0  0
 117  2  0   0   0   0  0  0
 118  0 57   0   0   0  0  0
 119  2  0   0   0   0  0  0
 120  0 58   0   0   0  0  0
 121  2  0   0   0   0  0  0
 122  0 59   0   0   0  0  0
 123  2  0   0   0   0  0  0
 124  0 60   0   0   0  0  0
 125  0  0   1   1   1  0  0
 126  0  0   0   0   0  1  0
 127  1  0   0   0   0  0  0
 128  0 61   0   0   0  0  0
 129  2  0   0   0   0  0  0
 130  0 62   0   0   0  0  0
 131  2  0   0   0   0  0  0
 132  0 63   0   0   0  0  0
 133  2  0   0   0   0  0  0
 134  0 64   0   0   0  0  0
 135  2  0   0   0   0  0  0
 136  0 65   0   0   0  0  0
 137  2  0   0   0   0  0  0
 138  0 66   0   0   0  0  0
 139  2  0   0   0   0  0  0
 140  0 67   0   0   0  0  0
 141  2  0   0   0   0  0  0
 142  0 68   0   0   0  0  0
 143  2  0   0   0   0  0  0
 144  0 69   0   0   0  0  0
 145  2  0   0   0   0  0  0
 146  0 70   0   0   0  0  0
 147  2  0   0   0   0  0  0
 148  0 71   0   0   0  0  0
 149  2  0   0   0   0  0  0
 150  0 72   0   0   0  0  0
 151  2  0   0   0   0  0  0
 152  0 73   0   0   0  0  0
 153  2  0   0   0   0  0  0
 154  0 74   0   0   0  0  0
 155  2  0   0   0   0  0  0
 156  0 75   0   0   0  0  0
 157  2  0   0   0   0  0  0
 158  0 76   0   0   0  0  0
 159  2  0   0   0   0  0  0
 160  0 77   0   0   0  0  0
 161  2  0   0   0   0  0  0
 162  0 78   0   0   0  0  0
 163  2  0   0   0   0  0  0
 164  0 79   0   0   0  0  0
 165  2  0   0   0   0  0  0
 166  0 80   0   0   0  0  0
 167  0  0   1   1   1  0  0
 168  0  0   0   0   0  1  0
 169  1  0   0   0   0  0  0
 170  0 81   0   0   0  0  0
 171  2  0   0   0   0  0  0
 172  0 82   0   0   0  0  0
 173  2  0   0   0   0  0  0
 174  0 83   0   0   0  0  0
 175  2  0   0   0   0  0  0
 176  0 84   0   0   0  0  0
 177  2  0   0   0   0  0  0
 178  0 85   0   0   0  0  0
 179  2  0   0   0   0  0  0
 180  0 86   0   0   0  0  0
 181  2  0   0   0   0  0  0
 182  0 87   0   0   0  0  0
 183  2  0   0   0   0  0  0
 184  0 88   0   0   0  0  0
 185  2  0   0   0   0  0  0
 186  0 89   0   0   0  0  0
 187  2  0   0   0   0  0  0
 188  0 90   0   0   0  0  0
 189  2  0   0   0   0  0  0
 190  0 91   0   0   0  0  0
 191  2  0   0   0   0  0  0
 192  0 92   0   0   0  0  0
 193  2  0   0   0   0  0  0
 194  0 93   0   0   0  0  0
 195  2  0   0   0   0  0  0
 196  0 94   0   0   0  0  0
 197  2  0   0   0   0  0  0
 198  0 95   0   0   0  0  0
 199  2  0   0   0   0  0  0
 200  0 96   0   0   0  0  0
 201  2  0   0   0   0  0  0
 202  0 97   0   0   0  0  0
 203  2  0   0   0   0  0  0
 204  0 98   0   0   0  0  0
 205  2  0   0   0   0  0  0
 206  0 99   0   0   0  0  0
 207  2  0   0   0   0  0  0
 208  0 100   0   0   0  0  0
 209  0  0   1   1   1  0  0
 210  0  0   0   0   0  1  0
 211  1  0   0   0   0  0  0
 212  0 101   0   0   0  0  0
 213  2  0   0   0   0  0  0
 214  0 102   0   0   0  0  0
 215  2  0   0   0   0  0  0
 216  0 103   0   0   0  0  0
 217  2  0   0   0   0  0  0
 218  0 104   0   0   0  0  0
 219  2  0   0   0   0  0  0
 220  0 105   0   0   0  0  0
 221  2  0   0   0   0  0  0
 222  0 106   0   0   0  0  0
 223  2  0   0   0   0  0  0
 224  0 107   0   0   0  0  0
 225  2  0   0   0   0  0  0
 226  0 108   0   0   0  0  0
 227  2  0   0   0   0  0  0
 228  0 109   0   0   0  0  0
 229  2  0   0   0   0  0  0
 230  0 110   0   0   0  0  0
 231  2  0   0   0   0  0  0
 232  0 111   0   0   0  0  0
 233  2  0   0   0   0  0  0
 234  0 112   0   0   0  0  0
 235  2  0   0   0   0  0  0
 236  0 113   0   0   0  0  0
 237  2  0   0   0   0  0  0
 238  0 114   0   0   0  0  0
 239  2  0   0   0   0  0  0
 240  0 115   0   0   0  0  0
 241  2  0   0   0   0  0  0
 242  0 116   0   0   0  0  0
 243  2  0   0   0   0  0  0
 244  0 117   0   0   0  0  0
 245  2  0   0   0   0  0  0
 246  0 118   0   0   0  0  0
 247  2  0   0   0   0  0  0
 248  0 119   0   0   0  0  0
 249  2  0   0   0   0  0  0
 250  0 120   0   0   0  0  0
 251  0  0   1   1   1  0  0
 252  0  0   0   0   0  1  0
 253  1  0   0   0   0  0  0
 254  0 121   0   0   0  0  0
 255  2  0   0   0   0  0  0
 256  0 122   0   0   0  0  0
 257  2  0   0   0   0  0  0
 258  0 123   0   0   0  0  0
 259  2  0   0   0   0  0  0
 260  0 124   0   0   0  0  0
 261  2  0   0   0   0  0  0
 262  0 125   0   0   0  0  0
 263  2  0   0   0   0  0  0
 264  0 126   0   0   0  0  0
 265  2  0   0   0   0  0  0
 266  0 127   0   0   0  0  0
 267  2  0   0   0   0  0  0
 268  0 128   0   0   0  0  0
 269  2  0   0   0   0  0  0
 270  0 129   0   0   0  0  0
 271  2  0   0   0   0  0  0
 272  0 130   0   0   0  0  0
 273  2  0   0   0   0  0  0
 274  0 131   0   0   0  0  0
 275  2  0   0   0   0  0  0
 276  0 132   0   0   0  0  0
 277  2  0   0   0   0  0  0
 278  0 133   0   0   0  0  0
 279  2  0   0   0   0  0  0
 280  0 134   0   0   0  0  0
 281  2  0   0   0   0  0  0
 282  0 135   0   0   0  0  0
 283  2  0   0   0   0  0  0
 284  0 136   0   0   0  0  0
 285  2  0   0   0   0  0  0
 286  0 137   0   0   0  0  0
 287  2  0   0   0   0  0  0
 288  0 138   0   0   0  0  0
 289  2  0   0   0   0  0  0
 290  0 139   0   0   0  0  0
 291  2  0   0   0   0  0  0
 292  0 140   0   0   0  0  0
 293  0  0   1   1   1  0  0
 294  0  0   0   0   0  1  0
 295  1  0   0   0   0  0  0
 296  0 141   0   0   0  0  0
 297  2  0   0   0   0  0  0
 298  0 142   0   0   0  0  0
 299  2  0   0   0   0  0  0
 300  0 143   0   0   0  0  0
 301  2  0   0   0   0  0  0
 302  0 144   0   0   0  0  0
 303  2  0   0   0   0  0  0
 304  0 145   0   0   0  0  0
 305  2  0   0   0   0  0  0
 306  0 146   0   0   0  0  0
 307  2  0   0   0   0  0  0
 308  0 147   0   0   0  0  0
 309  2  0   0   0   0  0  0
 310  0 148   0   0   0  0  0
 311  2  0   0   0   0  0  0
 312  0 149   0   0   0  0  0
 313  2  0   0   0   0  0  0
 314  0 150   0   0   0  0  0
 315  2  0   0   0   0  0  0
 316  0 151   0   0   0  0  0
 317  2  0   0   0   0  0  0
 318  0 152   0   0   0  0  0
 319  2  0   0   0   0  0  0
 320  0 153   0   0   0  0  0
 321  2  0   0   0   0  0  0
 322  0 154   0   0   0  0  0
 323  2  0   0   0   0  0  0
 324  0 155   0   0   0  0  0
 325  2  0   0   0   0  0  0
 326  0 156   0   0   0  0  0
 327  2  0   0   0   0  0  0
 328  0 157   0   0   0  0  0
 329  2  0   0   0   0  0  0
 330  0 158   0   0   0  0  0
[RF]
1      191.025 1 2 100 -199258 0
2      191.025 1 2 100 -199258 0.769062
3      191.025 1 2 100 -199258 1.53812
4      191.025 1 2 100 -199258 2.30719
5      191.025 1 2 100 -199258 3.07625
6      191.025 1 2 100 -199258 3.84531
7      191.025 1 2 100 -199258 4.61437
8      191.025 1 2 100 -199258 5.38343
9      191.025 1 2 100 -199258 6.1525
10      191.025 1 2 100 -199258 0.638372
11      191.025 1 2 100 -199258 1.40743
12      191.025 1 2 100 -199258 2.1765
13      191.025 1 2 100 -199258 2.94556
14      191.025 1 2 100 -199258 3.71462
15      191.025 1 2 100 -199258 4.48368
16      191.025 1 2 100 -199258 5.25274
17      191.025 1 2 100 -199258 6.0218
18      191.025 1 2 100 -199258 0.507681
19      191.025 1 2 100 -199258 1.27674
20      191.025 1 2 100 -199258 2.04581
21      191.025 1 2 100 -510.917 0
22      191.025 1 2 100 -510.917 2.85357
23      191.025 1 2 100 -510.917 5.70714
24      191.025 1 2 100 -510.917 2.27753
25      191.025 1 2 100 -510.917 5.1311
26      191.025 1 2 100 -510.917 1.70149
27      191.025 1 2 100 -510.917 4.55506
28      191.025 1 2 100 -510.917 1.12544
29      191.025 1 2 100 -510.917 3.97902
30      191.025 1 2 100 -510.917 0.549402
31      191.025 1 2 100 -510.917 3.40297
32      191.025 1 2 100 -510.917 6.25654
33      191.025 1 2 100 -510.917 2.82693
34      191.025 1 2 100 -510.917 5.6805
35      191.025 1 2 100 -510.917 2.25089
36      191.025 1 2 100 -510.917 5.10446
37      191.025 1 2 100 -510.917 1.67485
38      191.025 1 2 100 -510.917 4.52842
39      191.025 1 2 100 -510.917 1.0988
40      191.025 1 2 100 -510.917 3.95237
41      191.025 1 2 100 -478.984 0
42      191.025 1 2 100 -478.984 0.319029
43      191.025 1 2 100 -478.984 0.638057
44      191.025 1 2 100 -478.984 0.957086
45      191.025 1 2 100 -478.984 1.27611
46      191.025 1 2 100 -478.984 1.59514
47      191.025 1 2 100 -478.984 1.91417
48      191.025 1 2 100 -478.984 2.2332
49      191.025 1 2 100 -478.984 2.55223
50      191.025 1 2 100 -478.984 2.87126
51      191.025 1 2 100 -478.984 3.19029
52      191.025 1 2 100 -478.984 3.50932
53      191.025 1 2 100 -478.984 3.82834
54      191.025 1 2 100 -478.984 4.14737
55      191.025 1 2 100 -478.984 4.4664
56      191.025 1 2 100 -478.984 4.78543
57      191.025 1 2 100 -478.984 5.10446
58      191.025 1 2 100 -478.984 5.42349
59      191.025 1 2 100 -478.984 5.74252
60      191.025 1 2 100 -478.984 6.06155
61      191.025 1 2 100 -447.052 0
62      191.025 1 2 100 -447.052 4.06767
63      191.025 1 2 100 -447.052 1.85216
64      191.025 1 2 100 -447.052 5.91983
65      191.025 1 2 100 -447.052 3.70431
66      191.025 1 2 100 -447.052 1.4888
67      191.025 1 2 100 -447.052 5.55647
68      191.025 1 2 100 -447.052 3.34096
69      191.025 1 2 100 -447.052 1.12544
70      191.025 1 2 100 -447.052 5.19312
71      191.025 1 2 100 -447.052 2.9776
72      191.025 1 2 100 -447.052 0.762088
73      191.025 1 2 100 -447.052 4.82976
74      191.025 1 2 100 -447.052 2.61424
75      191.025 1 2 100 -447.052 0.398731
76      191.025 1 2 100 -447.052 4.4664
77      191.025 1 2 100 -447.052 2.25089
78      191.025 1 2 100 -447.052 0.0353743
79      191.025 1 2 100 -447.052 4.10305
80      191.025 1 2 100 -447.052 1.88753
81      191.025 1 2 100 -415.12 0
82      191.025 1 2 100 -415.12 1.53313
83      191.025 1 2 100 -415.12 3.06626
84      191.025 1 2 100 -415.12 4.59939
85      191.025 1 2 100 -415.12 6.13251
86      191.025 1 2 100 -415.12 1.38246
87      191.025 1 2 100 -415.12 2.91559
88      191.025 1 2 100 -415.12 4.44872
89      191.025 1 2 100 -415.12 5.98184
90      191.025 1 2 100 -415.12 1.23179
91      191.025 1 2 100 -415.12 2.76492
92      191.025 1 2 100 -415.12 4.29804
93      191.025 1 2 100 -415.12 5.83117
94      191.025 1 2 100 -415.12 1.08112
95      191.025 1 2 100 -415.12 2.61424
96      191.025 1 2 100 -415.12 4.14737
97      191.025 1 2 100 -415.12 5.6805
98      191.025 1 2 100 -415.12 0.930445
99      191.025 1 2 100 -415.12 2.46357
100      191.025 1 2 100 -415.12 3.9967
101      191.025 1 2 100 -383.188 0
102      191.025 1 2 100 -383.188 5.28177
103      191.025 1 2 100 -383.188 4.28036
104      191.025 1 2 100 -383.188 3.27894
105      191.025 1 2 100 -383.188 2.27753
106      191.025 1 2 100 -383.188 1.27611
107      191.025 1 2 100 -383.188 0.274701
108      191.025 1 2 100 -383.188 5.55647
109      191.025 1 2 100 -383.188 4.55506
110      191.025 1 2 100 -383.188 3.55364
111      191.025 1 2 100 -383.188 2.55223
112      191.025 1 2 100 -383.188 1.55082
113      191.025 1 2 100 -383.188 0.549402
114      191.025 1 2 100 -383.188 5.83117
115      191.025 1 2 100 -383.188 4.82976
116      191.025 1 2 100 -383.188 3.82834
117      191.025 1 2 100 -383.188 2.82693
118      191.025 1 2 100 -383.188 1.82552
119      191.025 1 2 100 -383.188 0.824103
120      191.025 1 2 100 -383.188 6.10587
121      191.025 1 2 100 -351.255 0
122      191.025 1 2 100 -351.255 2.74723
123      191.025 1 2 100 -351.255 5.49446
124      191.025 1 2 100 -351.255 1.9585
125      191.025 1 2 100 -351.255 4.70573
126      191.025 1 2 100 -351.255 1.16977
127      191.025 1 2 100 -351.255 3.917
128      191.025 1 2 100 -351.255 0.381044
129      191.025 1 2 100 -351.255 3.12827
130      191.025 1 2 100 -351.255 5.8755
131      191.025 1 2 100 -351.255 2.33954
132      191.025 1 2 100 -351.255 5.08677
133      191.025 1 2 100 -351.255 1.55082
134      191.025 1 2 100 -351.255 4.29804
135      191.025 1 2 100 -351.255 0.762088
136      191.025 1 2 100 -351.255 3.50932
137      191.025 1 2 100 -351.255 6.25654
138      191.025 1 2 100 -351.255 2.72059
139      191.025 1 2 100 -351.255 5.46782
140      191.025 1 2 100 -351.255 1.93186
141      191.025 1 2 100 -319.323 0
142      191.025 1 2 100 -319.323 0.212686
143      191.025 1 2 100 -319.323 0.425372
144      191.025 1 2 100 -319.323 0.638057
145      191.025 1 2 100 -319.323 0.850743
146      191.025 1 2 100 -319.323 1.06343
147      191.025 1 2 100 -319.323 1.27611
148      191.025 1 2 100 -319.323 1.4888
149      191.025 1 2 100 -319.323 1.70149
150      191.025 1 2 100 -319.323 1.91417
151      191.025 1 2 100 -319.323 2.12686
152      191.025 1 2 100 -319.323 2.33954
153      191.025 1 2 100 -319.323 2.55223
154      191.025 1 2 100 -319.323 2.76492
155      191.025 1 2 100 -319.323 2.9776
156      191.025 1 2 100 -319.323 3.19029
157      191.025 1 2 100 -319.323 3.40297
158      191.025 1 2 100 -319.323 3.61566
159      191.025 1 2 100 -319.323 3.82834
160      191.025 1 2 100 -319.323 4.04103
161      191.025 1 2 100 -287.391 0
162      191.025 1 2 100 -287.391 3.96133
163      191.025 1 2 100 -287.391 1.63947
164      191.025 1 2 100 -287.391 5.6008
165      191.025 1 2 100 -287.391 3.27894
166      191.025 1 2 100 -287.391 0.957086
167      191.025 1 2 100 -287.391 4.91841
168      191.025 1 2 100 -287.391 2.59656
169      191.025 1 2 100 -287.391 0.274701
170      191.025 1 2 100 -287.391 4.23603
171      191.025 1 2 100 -287.391 1.91417
172      191.025 1 2 100 -287.391 5.8755
173      191.025 1 2 100 -287.391 3.55364
174      191.025 1 2 100 -287.391 1.23179
175      191.025 1 2 100 -287.391 5.19312
176      191.025 1 2 100 -287.391 2.87126
177      191.025 1 2 100 -287.391 0.549402
178      191.025 1 2 100 -287.391 4.51073
179      191.025 1 2 100 -287.391 2.18887
180      191.025 1 2 100 -287.391 6.1502
181      191.025 1 2 100 -255.458 0
182      191.025 1 2 100 -255.458 1.42679
183      191.025 1 2 100 -255.458 2.85357
184      191.025 1 2 100 -255.458 4.28036
185      191.025 1 2 100 -255.458 5.70714
186      191.025 1 2 100 -255.458 0.850743
187      191.025 1 2 100 -255.458 2.27753
188      191.025 1 2 100 -255.458 3.70431
189      191.025 1 2 100 -255.458 5.1311
190      191.025 1 2 100 -255.458 0.274701
191      191.025 1 2 100 -255.458 1.70149
192      191.025 1 2 100 -255.458 3.12827
193      191.025 1 2 100 -255.458 4.55506
194      191.025 1 2 100 -255.458 5.98184
195      191.025 1 2 100 -255.458 1.12544
196      191.025 1 2 100 -255.458 2.55223
197      191.025 1 2 100 -255.458 3.97902
198      191.025 1 2 100 -255.458 5.4058
199      191.025 1 2 100 -255.458 0.549402
200      191.025 1 2 100 -255.458 1.97619
201      191.025 1 2 100 -223.526 0
202      191.025 1 2 100 -223.526 5.17543
203      191.025 1 2 100 -223.526 4.06767
204      191.025 1 2 100 -223.526 2.95991
205      191.025 1 2 100 -223.526 1.85216
206      191.025 1 2 100 -223.526 0.7444
207      191.025 1 2 100 -223.526 5.91983
208      191.025 1 2 100 -223.526 4.81207
209      191.025 1 2 100 -223.526 3.70431
210      191.025 1 2 100 -223.526 2.59656
211      191.025 1 2 100 -223.526 1.4888
212      191.025 1 2 100 -223.526 0.381044
213      191.025 1 2 100 -223.526 5.55647
214      191.025 1 2 100 -223.526 4.44872
215      191.025 1 2 100 -223.526 3.34096
216      191.025 1 2 100 -223.526 2.2332
217      191.025 1 2 100 -223.526 1.12544
218      191.025 1 2 100 -223.526 0.0176872
219      191.025 1 2 100 -223.526 5.19312
220      191.025 1 2 100 -223.526 4.08536
221      191.025 1 2 100 -191.594 0
222      191.025 1 2 100 -191.594 2.64089
223      191.025 1 2 100 -191.594 5.28177
224      191.025 1 2 100 -191.594 1.63947
225      191.025 1 2 100 -191.594 4.28036
226      191.025 1 2 100 -191.594 0.638057
227      191.025 1 2 100 -191.594 3.27894
228      191.025 1 2 100 -191.594 5.91983
229      191.025 1 2 100 -191.594 2.27753
230      191.025 1 2 100 -191.594 4.91841
231      191.025 1 2 100 -191.594 1.27611
232      191.025 1 2 100 -191.594 3.917
233      191.025 1 2 100 -191.594 0.274701
234      191.025 1 2 100 -191.594 2.91559
235      191.025 1 2 100 -191.594 5.55647
236      191.025 1 2 100 -191.594 1.91417
237      191.025 1 2 100 -191.594 4.55506
238      191.025 1 2 100 -191.594 0.912758
239      191.025 1 2 100 -191.594 3.55364
240      191.025 1 2 100 -191.594 6.19453
241      191.025 1 2 100 -159.661 0
242      191.025 1 2 100 -159.661 0.106343
243      191.025 1 2 100 -159.661 0.212686
244      191.025 1 2 100 -159.661 0.319029
245      191.025 1 2 100 -159.661 0.425372
246      191.025 1 2 100 -159.661 0.531715
247      191.025 1 2 100 -159.661 0.638057
248      191.025 1 2 100 -159.661 0.7444
249      191.025 1 2 100 -159.661 0.850743
250      191.025 1 2 100 -159.661 0.957086
251      191.025 1 2 100 -159.661 1.06343
252      191.025 1 2 100 -159.661 1.16977
253      191.025 1 2 100 -159.661 1.27611
254      191.025 1 2 100 -159.661 1.38246
255      191.025 1 2 100 -159.661 1.4888
256      191.025 1 2 100 -159.661 1.59514
257      191.025 1 2 100 -159.661 1.70149
258      191.025 1 2 100 -159.661 1.80783
259      191.025 1 2 100 -159.661 1.91417
260      191.025 1 2 100 -159.661 2.02052
261      191.025 1 2 100 -127.729 0
262      191.025 1 2 100 -127.729 3.85499
263      191.025 1 2 100 -127.729 1.42679
264      191.025 1 2 100 -127.729 5.28177
265      191.025 1 2 100 -127.729 2.85357
266      191.025 1 2 100 -127.729 0.425372
267      191.025 1 2 100 -127.729 4.28036
268      191.025 1 2 100 -127.729 1.85216
269      191.025 1 2 100 -127.729 5.70714
270      191.025 1 2 100 -127.729 3.27894
271      191.025 1 2 100 -127.729 0.850743
272      191.025 1 2 100 -127.729 4.70573
273      191.025 1 2 100 -127.729 2.27753
274      191.025 1 2 100 -127.729 6.13251
275      191.025 1 2 100 -127.729 3.70431
276      191.025 1 2 100 -127.729 1.27611
277      191.025 1 2 100 -127.729 5.1311
278      191.025 1 2 100 -127.729 2.7029
279      191.025 1 2 100 -127.729 0.274701
280      191.025 1 2 100 -127.729 4.12969
281      191.025 1 2 100 -95.7969 0
282      191.025 1 2 100 -95.7969 1.32044
283      191.025 1 2 100 -95.7969 2.64089
284      191.025 1 2 100 -95.7969 3.96133
285      191.025 1 2 100 -95.7969 5.28177
286      191.025 1 2 100 -95.7969 0.319029
287      191.025 1 2 100 -95.7969 1.63947
288      191.025 1 2 100 -95.7969 2.95991
289      191.025 1 2 100 -95.7969 4.28036
290      191.025 1 2 100 -95.7969 5.6008
291      191.025 1 2 100 -95.7969 0.638057
292      191.025 1 2 100 -95.7969 1.9585
293      191.025 1 2 100 -95.7969 3.27894
294      191.025 1 2 100 -95.7969 4.59939
295      191.025 1 2 100 -95.7969 5.91983
296      191.025 1 2 100 -95.7969 0.957086
297      191.025 1 2 100 -95.7969 2.27753
298      191.025 1 2 100 -95.7969 3.59797
299      191.025 1 2 100 -95.7969 4.91841
300      191.025 1 2 100 -95.7969 6.23886
301      191.025 1 2 100 -63.8646 0
302      191.025 1 2 100 -63.8646 5.06909
303      191.025 1 2 100 -63.8646 3.85499
304      191.025 1 2 100 -63.8646 2.64089
305      191.025 1 2 100 -63.8646 1.42679
306      191.025 1 2 100 -63.8646 0.212686
307      191.025 1 2 100 -63.8646 5.28177
308      191.025 1 2 100 -63.8646 4.06767
309      191.025 1 2 100 -63.8646 2.85357
310      191.025 1 2 100 -63.8646 1.63947
311      191.025 1 2 100 -63.8646 0.425372
312      191.025 1 2 100 -63.8646 5.49446
313      191.025 1 2 100 -63.8646 4.28036
314      191.025 1 2 100 -63.8646 3.06626
315      191.025 1 2 100 -63.8646 1.85216
316      191.025 1 2 100 -63.8646 0.638057
317      191.025 1 2 100 -63.8646 5.70714
318      191.025 1 2 100 -63.8646 4.49304
319      191.025 1 2 100 -63.8646 3.27894
320      191.025 1 2 100 -63.8646 2.06484
321      191.025 1 2 100 -31.9323 0
322      191.025 1 2 100 -31.9323 2.53454
323      191.025 1 2 100 -31.9323 5.06909
324      191.025 1 2 100 -31.9323 1.32044
325      191.025 1 2 100 -31.9323 3.85499
326      191.025 1 2 100 -31.9323 0.106343
327      191.025 1 2 100 -31.9323 2.64089
328      191.025 1 2 100 -31.9323 5.17543
329      191.025 1 2 100 -31.9323 1.42679
330      191.025 1 2 100 -31.9323 3.96133
331      191.025 1 2 100 -31.9323 0.212686
332      191.025 1 2 100 -31.9323 2.74723
333      191.025 1 2 100 -31.9323 5.28177
334      191.025 1 2 100 -31.9323 1.53313
335      191.025 1 2 100 -31.9323 4.06767
336      191.025 1 2 100 -31.9323 0.319029
337      191.025 1 2 100 -31.9323 2.85357
338      191.025 1 2 100 -31.9323 5.38811
339      191.025 1 2 100 -31.9323 1.63947
340      191.025 1 2 100 -31.9323 4.17401
341      191.025 1 2 100 0 0
342      191.025 1 2 100 31.9323 0
343      191.025 1 2 100 31.9323 3.74864
344      191.025 1 2 100 31.9323 1.2141
345      191.025 1 2 100 31.9323 4.96274
346      191.025 1 2 100 31.9323 2.4282
347      191.025 1 2 100 31.9323 6.17684
348      191.025 1 2 100 31.9323 3.6423
349      191.025 1 2 100 31.9323 1.10776
350      191.025 1 2 100 31.9323 4.8564
351      191.025 1 2 100 31.9323 2.32186
352      191.025 1 2 100 31.9323 6.0705
353      191.025 1 2 100 31.9323 3.53596
354      191.025 1 2 100 31.9323 1.00141
355      191.025 1 2 100 31.9323 4.75006
356      191.025 1 2 100 31.9323 2.21551
357      191.025 1 2 100 31.9323 5.96416
358      191.025 1 2 100 31.9323 3.42961
359      191.025 1 2 100 31.9323 0.895071
360      191.025 1 2 100 31.9323 4.64371
361      191.025 1 2 100 31.9323 2.10917
362      191.025 1 2 100 63.8646 0
363      191.025 1 2 100 63.8646 1.2141
364      191.025 1 2 100 63.8646 2.4282
365      191.025 1 2 100 63.8646 3.6423
366      191.025 1 2 100 63.8646 4.8564
367      191.025 1 2 100 63.8646 6.0705
368      191.025 1 2 100 63.8646 1.00141
369      191.025 1 2 100 63.8646 2.21551
370      191.025 1 2 100 63.8646 3.42961
371      191.025 1 2 100 63.8646 4.64371
372      191.025 1 2 100 63.8646 5.85781
373      191.025 1 2 100 63.8646 0.788728
374      191.025 1 2 100 63.8646 2.00283
375      191.025 1 2 100 63.8646 3.21693
376      191.025 1 2 100 63.8646 4.43103
377      191.025 1 2 100 63.8646 5.64513
378      191.025 1 2 100 63.8646 0.576042
379      191.025 1 2 100 63.8646 1.79014
380      191.025 1 2 100 63.8646 3.00424
381      191.025 1 2 100 63.8646 4.21834
382      191.025 1 2 100 95.7969 0
383      191.025 1 2 100 95.7969 4.96274
384      191.025 1 2 100 95.7969 3.6423
385      191.025 1 2 100 95.7969 2.32186
386      191.025 1 2 100 95.7969 1.00141
387      191.025 1 2 100 95.7969 5.96416
388      191.025 1 2 100 95.7969 4.64371
389      191.025 1 2 100 95.7969 3.32327
390      191.025 1 2 100 95.7969 2.00283
391      191.025 1 2 100 95.7969 0.682385
392      191.025 1 2 100 95.7969 5.64513
393      191.025 1 2 100 95.7969 4.32469
394      191.025 1 2 100 95.7969 3.00424
395      191.025 1 2 100 95.7969 1.6838
396      191.025 1 2 100 95.7969 0.363357
397      191.025 1 2 100 95.7969 5.3261
398      191.025 1 2 100 95.7969 4.00566
399      191.025 1 2 100 95.7969 2.68521
400      191.025 1 2 100 95.7969 1.36477
401      191.025 1 2 100 95.7969 0.0443279
402      191.025 1 2 100 127.729 0
403      191.025 1 2 100 127.729 2.4282
404      191.025 1 2 100 127.729 4.8564
405      191.025 1 2 100 127.729 1.00141
406      191.025 1 2 100 127.729 3.42961
407      191.025 1 2 100 127.729 5.85781
408      191.025 1 2 100 127.729 2.00283
409      191.025 1 2 100 127.729 4.43103
410      191.025 1 2 100 127.729 0.576042
411      191.025 1 2 100 127.729 3.00424
412      191.025 1 2 100 127.729 5.43244
413      191.025 1 2 100 127.729 1.57746
414      191.025 1 2 100 127.729 4.00566
415      191.025 1 2 100 127.729 0.150671
416      191.025 1 2 100 127.729 2.57887
417      191.025 1 2 100 127.729 5.00707
418      191.025 1 2 100 127.729 1.15208
419      191.025 1 2 100 127.729 3.58028
420      191.025 1 2 100 127.729 6.00848
421      191.025 1 2 100 127.729 2.1535
422      191.025 1 2 100 159.661 0
423      191.025 1 2 100 159.661 6.17684
424      191.025 1 2 100 159.661 6.0705
425      191.025 1 2 100 159.661 5.96416
426      191.025 1 2 100 159.661 5.85781
427      191.025 1 2 100 159.661 5.75147
428      191.025 1 2 100 159.661 5.64513
429      191.025 1 2 100 159.661 5.53878
430      191.025 1 2 100 159.661 5.43244
431      191.025 1 2 100 159.661 5.3261
432      191.025 1 2 100 159.661 5.21976
433      191.025 1 2 100 159.661 5.11341
434      191.025 1 2 100 159.661 5.00707
435      191.025 1 2 100 159.661 4.90073
436      191.025 1 2 100 159.661 4.79438
437      191.025 1 2 100 159.661 4.68804
438      191.025 1 2 100 159.661 4.5817
439      191.025 1 2 100 159.661 4.47536
440      191.025 1 2 100 159.661 4.36901
441      191.025 1 2 100 159.661 4.26267
442      191.025 1 2 100 191.594 0
443      191.025 1 2 100 191.594 3.6423
444      191.025 1 2 100 191.594 1.00141
445      191.025 1 2 100 191.594 4.64371
446      191.025 1 2 100 191.594 2.00283
447      191.025 1 2 100 191.594 5.64513
448      191.025 1 2 100 191.594 3.00424
449      191.025 1 2 100 191.594 0.363357
450      191.025 1 2 100 191.594 4.00566
451      191.025 1 2 100 191.594 1.36477
452      191.025 1 2 100 191.594 5.00707
453      191.025 1 2 100 191.594 2.36618
454      191.025 1 2 100 191.594 6.00848
455      191.025 1 2 100 191.594 3.3676
456      191.025 1 2 100 191.594 0.726713
457      191.025 1 2 100 191.594 4.36901
458      191.025 1 2 100 191.594 1.72813
459      191.025 1 2 100 191.594 5.37043
460      191.025 1 2 100 191.594 2.72954
461      191.025 1 2 100 191.594 0.0886557
462      191.025 1 2 100 223.526 0
463      191.025 1 2 100 223.526 1.10776
464      191.025 1 2 100 223.526 2.21551
465      191.025 1 2 100 223.526 3.32327
466      191.025 1 2 100 223.526 4.43103
467      191.025 1 2 100 223.526 5.53878
468      191.025 1 2 100 223.526 0.363357
469      191.025 1 2 100 223.526 1.47111
470      191.025 1 2 100 223.526 2.57887
471      191.025 1 2 100 223.526 3.68663
472      191.025 1 2 100 223.526 4.79438
473      191.025 1 2 100 223.526 5.90214
474      191.025 1 2 100 223.526 0.726713
475      191.025 1 2 100 223.526 1.83447
476      191.025 1 2 100 223.526 2.94223
477      191.025 1 2 100 223.526 4.04998
478      191.025 1 2 100 223.526 5.15774
479      191.025 1 2 100 223.526 6.2655
480      191.025 1 2 100 223.526 1.09007
481      191.025 1 2 100 223.526 2.19783
482      191.025 1 2 100 255.458 0
483      191.025 1 2 100 255.458 4.8564
484      191.025 1 2 100 255.458 3.42961
485      191.025 1 2 100 255.458 2.00283
486      191.025 1 2 100 255.458 0.576042
