# Pulseq sequence file
# Created by MATLAB mr toolbox

[VERSION]
major 1
minor 3
revision 0

[DEFINITIONS]
offsets_ppm -1560 -6 -5.5 -5 -4.5 -4 -3.5 -3 -2.5 -2 -1.5 -1 -0.5 0 0.5 1 1.5 2 2.5 3 3.5 4 4.5 5 5.5 6 
run_m0_scan 0 

# Format of blocks:
#  #  D RF  GX  GY  GZ ADC EXT
[BLOCKS]
   1  1  0   0   0   0  0  0
   2  0  1   0   0   0  0  0
   3  2  0   0   0   0  0  0
   4  0  1   0   0   0  0  0
   5  2  0   0   0   0  0  0
   6  0  1   0   0   0  0  0
   7  2  0   0   0   0  0  0
   8  0  1   0   0   0  0  0
   9  2  0   0   0   0  0  0
  10  0  1   0   0   0  0  0
  11  2  0   0   0   0  0  0
  12  0  1   0   0   0  0  0
  13  2  0   0   0   0  0  0
  14  0  1   0   0   0  0  0
  15  2  0   0   0   0  0  0
  16  0  1   0   0   0  0  0
  17  2  0   0   0   0  0  0
  18  0  1   0   0   0  0  0
  19  2  0   0   0   0  0  0
  20  0  1   0   0   0  0  0
  21  2  0   0   0   0  0  0
  22  0  1   0   0   0  0  0
  23  2  0   0   0   0  0  0
  24  0  1   0   0   0  0  0
  25  2  0   0   0   0  0  0
  26  0  1   0   0   0  0  0
  27  2  0   0   0   0  0  0
  28  0  1   0   0   0  0  0
  29  2  0   0   0   0  0  0
  30  0  1   0   0   0  0  0
  31  2  0   0   0   0  0  0
  32  0  1   0   0   0  0  0
  33  2  0   0   0   0  0  0
  34  0  1   0   0   0  0  0
  35  2  0   0   0   0  0  0
  36  0  1   0   0   0  0  0
  37  2  0   0   0   0  0  0
  38  0  1   0   0   0  0  0
  39  2  0   0   0   0  0  0
  40  0  1   0   0   0  0  0
  41  2  0   0   0   0  0  0
  42  0  1   0   0   0  0  0
  43  2  0   0   0   0  0  0
  44  0  1   0   0   0  0  0
  45  2  0   0   0   0  0  0
  46  0  1   0   0   0  0  0
  47  2  0   0   0   0  0  0
  48  0  1   0   0   0  0  0
  49  2  0   0   0   0  0  0
  50  0  1   0   0   0  0  0
  51  2  0   0   0   0  0  0
  52  0  1   0   0   0  0  0
  53  2  0   0   0   0  0  0
  54  0  1   0   0   0  0  0
  55  2  0   0   0   0  0  0
  56  0  1   0   0   0  0  0
  57  2  0   0   0   0  0  0
  58  0  1   0   0   0  0  0
  59  2  0   0   0   0  0  0
  60  0  1   0   0   0  0  0
  61  2  0   0   0   0  0  0
  62  0  1   0   0   0  0  0
  63  2  0   0   0   0  0  0
  64  0  1   0   0   0  0  0
  65  2  0   0   0   0  0  0
  66  0  1   0   0   0  0  0
  67  2  0   0   0   0  0  0
  68  0  1   0   0   0  0  0
  69  2  0   0   0   0  0  0
  70  0  1   0   0   0  0  0
  71  2  0   0   0   0  0  0
  72  0  1   0   0   0  0  0
  73  2  0   0   0   0  0  0
  74  0  1   0   0   0  0  0
  75  2  0   0   0   0  0  0
  76  0  1   0   0   0  0  0
  77  2  0   0   0   0  0  0
  78  0  1   0   0   0  0  0
  79  2  0   0   0   0  0  0
  80  0  1   0   0   0  0  0
  81  0  0   1   1   1  0  0
  82  0  0   0   0   0  1  0
  83  1  0   0   0   0  0  0
  84  0  2   0   0   0  0  0
  85  2  0   0   0   0  0  0
  86  0  2   0   0   0  0  0
  87  2  0   0   0   0  0  0
  88  0  2   0   0   0  0  0
  89  2  0   0   0   0  0  0
  90  0  2   0   0   0  0  0
  91  2  0   0   0   0  0  0
  92  0  2   0   0   0  0  0
  93  2  0   0   0   0  0  0
  94  0  2   0   0   0  0  0
  95  2  0   0   0   0  0  0
  96  0  2   0   0   0  0  0
  97  2  0   0   0   0  0  0
  98  0  2   0   0   0  0  0
  99  2  0   0   0   0  0  0
 100  0  2   0   0   0  0  0
 101  2  0   0   0   0  0  0
 102  0  2   0   0   0  0  0
 103  2  0   0   0   0  0  0
 104  0  2   0   0   0  0  0
 105  2  0   0   0   0  0  0
 106  0  2   0   0   0  0  0
 107  2  0   0   0   0  0  0
 108  0  2   0   0   0  0  0
 109  2  0   0   0   0  0  0
 110  0  2   0   0   0  0  0
 111  2  0   0   0   0  0  0
 112  0  2   0   0   0  0  0
 113  2  0   0   0   0  0  0
 114  0  2   0   0   0  0  0
 115  2  0   0   0   0  0  0
 116  0  2   0   0   0  0  0
 117  2  0   0   0   0  0  0
 118  0  2   0   0   0  0  0
 119  2  0   0   0   0  0  0
 120  0  2   0   0   0  0  0
 121  2  0   0   0   0  0  0
 122  0  2   0   0   0  0  0
 123  2  0   0   0   0  0  0
 124  0  2   0   0   0  0  0
 125  2  0   0   0   0  0  0
 126  0  2   0   0   0  0  0
 127  2  0   0   0   0  0  0
 128  0  2   0   0   0  0  0
 129  2  0   0   0   0  0  0
 130  0  2   0   0   0  0  0
 131  2  0   0   0   0  0  0
 132  0  2   0   0   0  0  0
 133  2  0   0   0   0  0  0
 134  0  2   0   0   0  0  0
 135  2  0   0   0   0  0  0
 136  0  2   0   0   0  0  0
 137  2  0   0   0   0  0  0
 138  0  2   0   0   0  0  0
 139  2  0   0   0   0  0  0
 140  0  2   0   0   0  0  0
 141  2  0   0   0   0  0  0
 142  0  2   0   0   0  0  0
 143  2  0   0   0   0  0  0
 144  0  2   0   0   0  0  0
 145  2  0   0   0   0  0  0
 146  0  2   0   0   0  0  0
 147  2  0   0   0   0  0  0
 148  0  2   0   0   0  0  0
 149  2  0   0   0   0  0  0
 150  0  2   0   0   0  0  0
 151  2  0   0   0   0  0  0
 152  0  2   0   0   0  0  0
 153  2  0   0   0   0  0  0
 154  0  2   0   0   0  0  0
 155  2  0   0   0   0  0  0
 156  0  2   0   0   0  0  0
 157  2  0   0   0   0  0  0
 158  0  2   0   0   0  0  0
 159  2  0   0   0   0  0  0
 160  0  2   0   0   0  0  0
 161  2  0   0   0   0  0  0
 162  0  2   0   0   0  0  0
 163  0  0   1   1   1  0  0
 164  0  0   0   0   0  1  0
 165  1  0   0   0   0  0  0
 166  0  3   0   0   0  0  0
 167  2  0   0   0   0  0  0
 168  0  3   0   0   0  0  0
 169  2  0   0   0   0  0  0
 170  0  3   0   0   0  0  0
 171  2  0   0   0   0  0  0
 172  0  3   0   0   0  0  0
 173  2  0   0   0   0  0  0
 174  0  3   0   0   0  0  0
 175  2  0   0   0   0  0  0
 176  0  3   0   0   0  0  0
 177  2  0   0   0   0  0  0
 178  0  3   0   0   0  0  0
 179  2  0   0   0   0  0  0
 180  0  3   0   0   0  0  0
 181  2  0   0   0   0  0  0
 182  0  3   0   0   0  0  0
 183  2  0   0   0   0  0  0
 184  0  3   0   0   0  0  0
 185  2  0   0   0   0  0  0
 186  0  3   0   0   0  0  0
 187  2  0   0   0   0  0  0
 188  0  3   0   0   0  0  0
 189  2  0   0   0   0  0  0
 190  0  3   0   0   0  0  0
 191  2  0   0   0   0  0  0
 192  0  3   0   0   0  0  0
 193  2  0   0   0   0  0  0
 194  0  3   0   0   0  0  0
 195  2  0   0   0   0  0  0
 196  0  3   0   0   0  0  0
 197  2  0   0   0   0  0  0
 198  0  3   0   0   0  0  0
 199  2  0   0   0   0  0  0
 200  0  3   0   0   0  0  0
 201  2  0   0   0   0  0  0
 202  0  3   0   0   0  0  0
 203  2  0   0   0   0  0  0
 204  0  3   0   0   0  0  0
 205  2  0   0   0   0  0  0
 206  0  3   0   0   0  0  0
 207  2  0   0   0   0  0  0
 208  0  3   0   0   0  0  0
 209  2  0   0   0   0  0  0
 210  0  3   0   0   0  0  0
 211  2  0   0   0   0  0  0
 212  0  3   0   0   0  0  0
 213  2  0   0   0   0  0  0
 214  0  3   0   0   0  0  0
 215  2  0   0   0   0  0  0
 216  0  3   0   0   0  0  0
 217  2  0   0   0   0  0  0
 218  0  3   0   0   0  0  0
 219  2  0   0   0   0  0  0
 220  0  3   0   0   0  0  0
 221  2  0   0   0   0  0  0
 222  0  3   0   0   0  0  0
 223  2  0   0   0   0  0  0
 224  0  3   0   0   0  0  0
 225  2  0   0   0   0  0  0
 226  0  3   0   0   0  0  0
 227  2  0   0   0   0  0  0
 228  0  3   0   0   0  0  0
 229  2  0   0   0   0  0  0
 230  0  3   0   0   0  0  0
 231  2  0   0   0   0  0  0
 232  0  3   0   0   0  0  0
 233  2  0   0   0   0  0  0
 234  0  3   0   0   0  0  0
 235  2  0   0   0   0  0  0
 236  0  3   0   0   0  0  0
 237  2  0   0   0   0  0  0
 238  0  3   0   0   0  0  0
 239  2  0   0   0   0  0  0
 240  0  3   0   0   0  0  0
 241  2  0   0   0   0  0  0
 242  0  3   0   0   0  0  0
 243  2  0   0   0   0  0  0
 244  0  3   0   0   0  0  0
 245  0  0   1   1   1  0  0
 246  0  0   0   0   0  1  0
 247  1  0   0   0   0  0  0
 248  0  4   0   0   0  0  0
 249  2  0   0   0   0  0  0
 250  0  4   0   0   0  0  0
 251  2  0   0   0   0  0  0
 252  0  4   0   0   0  0  0
 253  2  0   0   0   0  0  0
 254  0  4   0   0   0  0  0
 255  2  0   0   0   0  0  0
 256  0  4   0   0   0  0  0
 257  2  0   0   0   0  0  0
 258  0  4   0   0   0  0  0
 259  2  0   0   0   0  0  0
 260  0  4   0   0   0  0  0
 261  2  0   0   0   0  0  0
 262  0  4   0   0   0  0  0
 263  2  0   0   0   0  0  0
 264  0  4   0   0   0  0  0
 265  2  0   0   0   0  0  0
 266  0  4   0   0   0  0  0
 267  2  0   0   0   0  0  0
 268  0  4   0   0   0  0  0
 269  2  0   0   0   0  0  0
 270  0  4   0   0   0  0  0
 271  2  0   0   0   0  0  0
 272  0  4   0   0   0  0  0
 273  2  0   0   0   0  0  0
 274  0  4   0   0   0  0  0
 275  2  0   0   0   0  0  0
 276  0  4   0   0   0  0  0
 277  2  0   0   0   0  0  0
 278  0  4   0   0   0  0  0
 279  2  0   0   0   0  0  0
 280  0  4   0   0   0  0  0
 281  2  0   0   0   0  0  0
 282  0  4   0   0   0  0  0
 283  2  0   0   0   0  0  0
 284  0  4   0   0   0  0  0
 285  2  0   0   0   0  0  0
 286  0  4   0   0   0  0  0
 287  2  0   0   0   0  0  0
 288  0  4   0   0   0  0  0
 289  2  0   0   0   0  0  0
 290  0  4   0   0   0  0  0
 291  2  0   0   0   0  0  0
 292  0  4   0   0   0  0  0
 293  2  0   0   0   0  0  0
 294  0  4   0   0   0  0  0
 295  2  0   0   0   0  0  0
 296  0  4   0   0   0  0  0
 297  2  0   0   0   0  0  0
 298  0  4   0   0   0  0  0
 299  2  0   0   0   0  0  0
 300  0  4   0   0   0  0  0
 301  2  0   0   0   0  0  0
 302  0  4   0   0   0  0  0
 303  2  0   0   0   0  0  0
 304  0  4   0   0   0  0  0
 305  2  0   0   0   0  0  0
 306  0  4   0   0   0  0  0
 307  2  0   0   0   0  0  0
 308  0  4   0   0   0  0  0
 309  2  0   0   0   0  0  0
 310  0  4   0   0   0  0  0
 311  2  0   0   0   0  0  0
 312  0  4   0   0   0  0  0
 313  2  0   0   0   0  0  0
 314  0  4   0   0   0  0  0
 315  2  0   0   0   0  0  0
 316  0  4   0   0   0  0  0
 317  2  0   0   0   0  0  0
 318  0  4   0   0   0  0  0
 319  2  0   0   0   0  0  0
 320  0  4   0   0   0  0  0
 321  2  0   0   0   0  0  0
 322  0  4   0   0   0  0  0
 323  2  0   0   0   0  0  0
 324  0  4   0   0   0  0  0
 325  2  0   0   0   0  0  0
 326  0  4   0   0   0  0  0
 327  0  0   1   1   1  0  0
 328  0  0   0   0   0  1  0
 329  1  0   0   0   0  0  0
 330  0  5   0   0   0  0  0
 331  2  0   0   0   0  0  0
 332  0  5   0   0   0  0  0
 333  2  0   0   0   0  0  0
 334  0  5   0   0   0  0  0
[RF]
1      255.502 1 2 100 -199258 0
2      255.502 1 2 100 -766.375 0
3      255.502 1 2 100 -702.511 0
4      255.502 1 2 100 -638.646 0
5      255.502 1 2 100 -574.781 0
6      255.502 1 2 100 -510.917 0
7      255.502 1 2 100 -447.052 0
8      255.502 1 2 100 -383.188 0
9      255.502 1 2 100 -319.323 0
10      255.502 1 2 100 -255.458 0
11      255.502 1 2 100 -191.594 0
12      255.502 1 2 100 -127.729 0
13      255.502 1 2 100 -63.8646 0
14      255.502 1 2 100 0 0
15      255.502 1 2 100 63.8646 0
16      255.502 1 2 100 127.729 0
17      255.502 1 2 100 191.594 0
18      255.502 1 2 100 255.458 0
19      255.502 1 2 100 319.323 0
20      255.502 1 2 100 383.188 0
21      255.502 1 2 100 447.052 0
22      255.502 1 2 100 510.917 0
23      255.502 1 2 100 574.781 0
24      255.502 1 2 100 638.646 0
25      255.502 1 2 100 702.511 0
26      255.502 1 2 100 766.375 0

# Format of trapezoid gradients:
# id amplitude rise flat fall delay
# ..      Hz/m   us   us   us    us
[TRAP]
 1  1.36243e+06 250 4000 250   0

# Format of ADC events:
# id num dwell delay freq phase
# ..  ..    ns    us   Hz   rad
[ADC]
1 1 1000000 0 0 0

# Format of delays:
# id delay (us)
[DELAYS]
1 2400000
2 1

# Sequence Shapes
[SHAPES]

shape_id 1
num_samples 50030
0.0008519
5e-07
5e-07
1
4e-07
5e-07
5e-07
3
4e-07
5e-07
5e-07
4
4e-07
5e-07
5e-07
5
4e-07
5e-07
5e-07
6
4e-07
5e-07
5e-07
9
4e-07
5e-07
5e-07
47
6e-07
5e-07
5e-07
10
6e-07
5e-07
5e-07
6
6e-07
5e-07
5e-07
4
6e-07
5e-07
5e-07
4
6e-07
5e-07
5e-07
3
6e-07
5e-07
5e-07
2
6e-07
5e-07
5e-07
2
6e-07
5e-07
5e-07
2
6e-07
5e-07
5e-07
1
6e-07
5e-07
5e-07
2
6e-07
5e-07
5e-07
1
6e-07
5e-07
5e-07
1
6e-07
5e-07
5e-07
0
6e-07
5e-07
5e-07
1
6e-07
5e-07
5e-07
0
6e-07
5e-07
5e-07
1
6e-07
5e-07
5e-07
0
6e-07
5e-07
5e-07
0
6e-07
5e-07
5e-07
0
6e-07
5e-07
5e-07
0
6e-07
5e-07
5e-07
0
6e-07
5e-07
5e-07
0
6e-07
5e-07
5e-07
0
6e-07
5e-07
5e-07
0
6e-07
5e-07
6e-07
5e-07
5e-07
0
6e-07
5e-07
5e-07
0
6e-07
5e-07
6e-07
5e-07
5e-07
0
6e-07
5e-07
6e-07
5e-07
6e-07
5e-07
5e-07
0
6e-07
5e-07
6e-07
5e-07
6e-07
5e-07
5e-07
0
6e-07
5e-07
6e-07
5e-07
6e-07
5e-07
6e-07
5e-07
6e-07
5e-07
5e-07
0
6e-07
5e-07
6e-07
5e-07
6e-07
5e-07
6e-07
5e-07
6e-07
5e-07
6e-07
5e-07
6e-07
5e-07
6e-07
5e-07
6e-07
5e-07
6e-07
6e-07
0
5e-07
6e-07
5e-07
6e-07
5e-07
6e-07
5e-07
6e-07
5e-07
6e-07
6e-07
0
5e-07
6e-07
5e-07
6e-07
5e-07
6e-07
6e-07
0
5e-07
6e-07
5e-07
6e-07
6e-07
0
5e-07
6e-07
5e-07
6e-07
6e-07
0
5e-07
6e-07
5e-07
6e-07
6e-07
0
5e-07
6e-07
6e-07
0
5e-07
6e-07
5e-07
6e-07
6e-07
0
5e-07
6e-07
6e-07
0
5e-07
6e-07
6e-07
0
5e-07
6e-07
6e-07
0
5e-07
6e-07
6e-07
1
5e-07
6e-07
6e-07
0
5e-07
6e-07
6e-07
0
5e-07
6e-07
6e-07
1
5e-07
6e-07
6e-07
0
5e-07
6e-07
6e-07
1
5e-07
6e-07
6e-07
1
5e-07
6e-07
6e-07
1
5e-07
6e-07
6e-07
2
5e-07
6e-07
6e-07
1
5e-07
6e-07
6e-07
2
5e-07
6e-07
6e-07
3
5e-07
6e-07
6e-07
3
5e-07
6e-07
6e-07
3
5e-07
6e-07
6e-07
5
5e-07
6e-07
6e-07
8
5e-07
6e-07
6e-07
15
5e-07
6e-07
6e-07
14
7e-07
6e-07
6e-07
15
7e-07
6e-07
6e-07
7
7e-07
6e-07
6e-07
5
7e-07
6e-07
6e-07
4
7e-07
6e-07
6e-07
3
7e-07
6e-07
6e-07
2
7e-07
6e-07
6e-07
2
7e-07
6e-07
6e-07
1
7e-07
6e-07
6e-07
2
7e-07
6e-07
6e-07
1
7e-07
6e-07
6e-07
1
7e-07
6e-07
6e-07
0
7e-07
6e-07
6e-07
1
7e-07
6e-07
6e-07
0
7e-07
6e-07
6e-07
1
7e-07
6e-07
6e-07
0
7e-07
6e-07
6e-07
0
7e-07
6e-07
6e-07
0
7e-07
6e-07
6e-07
0
7e-07
6e-07
7e-07
6e-07
6e-07
0
7e-07
6e-07
6e-07
0
7e-07
6e-07
6e-07
0
7e-07
6e-07
7e-07
6e-07
6e-07
0
7e-07
6e-07
7e-07
6e-07
7e-07
6e-07
6e-07
0
7e-07
6e-07
7e-07
6e-07
7e-07
6e-07
6e-07
0
7e-07
6e-07
7e-07
6e-07
7e-07
6e-07
7e-07
6e-07
7e-07
6e-07
7e-07
6e-07
6e-07
0
7e-07
6e-07
7e-07
6e-07
7e-07
6e-07
7e-07
7e-07
0
6e-07
7e-07
6e-07
7e-07
6e-07
7e-07
6e-07
7e-07
6e-07
7e-07
6e-07
7e-07
7e-07
0
6e-07
7e-07
6e-07
7e-07
6e-07
7e-07
7e-07
0
6e-07
7e-07
6e-07
7e-07
6e-07
7e-07
7e-07
0
6e-07
7e-07
7e-07
0
6e-07
7e-07
6e-07
7e-07
7e-07
0
6e-07
7e-07
7e-07
0
6e-07
7e-07
7e-07
0
6e-07
7e-07
7e-07
0
6e-07
7e-07
7e-07
0
6e-07
7e-07
7e-07
0
6e-07
7e-07
7e-07
0
6e-07
7e-07
7e-07
0
6e-07
7e-07
7e-07
1
6e-07
7e-07
7e-07
1
6e-07
7e-07
7e-07
0
6e-07
7e-07
7e-07
1
6e-07
7e-07
7e-07
2
6e-07
7e-07
7e-07
1
6e-07
7e-07
7e-07
2
6e-07
7e-07
7e-07
3
6e-07
7e-07
7e-07
3
6e-07
7e-07
7e-07
4
6e-07
7e-07
7e-07
7
6e-07
7e-07
7e-07
12
6e-07
7e-07
7e-07
18
8e-07
7e-07
7e-07
13
8e-07
7e-07
7e-07
6
8e-07
7e-07
7e-07
4
8e-07
7e-07
7e-07
3
8e-07
7e-07
7e-07
3
8e-07
7e-07
7e-07
2
8e-07
7e-07
7e-07
1
8e-07
7e-07
7e-07
1
8e-07
7e-07
7e-07
1
8e-07
7e-07
7e-07
1
8e-07
7e-07
7e-07
1
8e-07
7e-07
7e-07
0
8e-07
7e-07
7e-07
0
8e-07
7e-07
7e-07
1
8e-07
7e-07
7e-07
0
8e-07
7e-07
7e-07
0
8e-07
7e-07
8e-07
7e-07
7e-07
0
8e-07
7e-07
7e-07
0
8e-07
7e-07
8e-07
7e-07
7e-07
0
8e-07
7e-07
7e-07
0
8e-07
7e-07
8e-07
7e-07
8e-07
7e-07
7e-07
0
8e-07
7e-07
8e-07
7e-07
8e-07
7e-07
8e-07
7e-07
7e-07
0
8e-07
7e-07
8e-07
7e-07
8e-07
7e-07
8e-07
7e-07
8e-07
7e-07
8e-07
7e-07
8e-07
7e-07
8e-07
7e-07
8e-07
7e-07
8e-07
7e-07
8e-07
8e-07
0
7e-07
8e-07
7e-07
8e-07
7e-07
8e-07
7e-07
8e-07
8e-07
0
7e-07
8e-07
7e-07
8e-07
8e-07
0
7e-07
8e-07
7e-07
8e-07
8e-07
0
7e-07
8e-07
8e-07
0
7e-07
8e-07
7e-07
8e-07
8e-07
0
7e-07
8e-07
8e-07
0
7e-07
8e-07
8e-07
0
7e-07
8e-07
8e-07
0
7e-07
8e-07
8e-07
1
7e-07
8e-07
8e-07
0
7e-07
8e-07
8e-07
1
7e-07
8e-07
8e-07
0
7e-07
8e-07
8e-07
1
7e-07
8e-07
8e-07
2
7e-07
8e-07
8e-07
1
7e-07
8e-07
8e-07
2
7e-07
8e-07
8e-07
3
7e-07
8e-07
8e-07
4
7e-07
8e-07
8e-07
5
7e-07
8e-07
8e-07
9
7e-07
8e-07
8e-07
25
9e-07
8e-07
8e-07
10
9e-07
8e-07
8e-07
5
9e-07
8e-07
8e-07
3
9e-07
8e-07
8e-07
3
9e-07
8e-07
8e-07
2
9e-07
8e-07
8e-07
2
9e-07
8e-07
8e-07
1
9e-07
8e-07
8e-07
1
9e-07
8e-07
8e-07
0
9e-07
8e-07
8e-07
1
9e-07
8e-07
8e-07
0
9e-07
8e-07
8e-07
0
9e-07
8e-07
8e-07
1
9e-07
8e-07
8e-07
0
9e-07
8e-07
9e-07
8e-07
8e-07
0
9e-07
8e-07
8e-07
0
9e-07
8e-07
9e-07
8e-07
8e-07
0
9e-07
8e-07
9e-07
8e-07
8e-07
0
9e-07
8e-07
9e-07
8e-07
9e-07
8e-07
8e-07
0
9e-07
8e-07
9e-07
8e-07
9e-07
8e-07
9e-07
8e-07
9e-07
8e-07
9e-07
8e-07
9e-07
8e-07
9e-07
8e-07
9e-07
8e-07
9e-07
8e-07
9e-07
8e-07
9e-07
8e-07
9e-07
9e-07
0
8e-07
9e-07
8e-07
9e-07
8e-07
9e-07
9e-07
0
8e-07
9e-07
8e-07
9e-07
9e-07
0
8e-07
9e-07
8e-07
9e-07
9e-07
0
8e-07
9e-07
9e-07
0
8e-07
9e-07
9e-07
0
8e-07
9e-07
8e-07
9e-07
9e-07
1
8e-07
9e-07
9e-07
0
8e-07
9e-07
9e-07
0
8e-07
9e-07
9e-07
1
8e-07
9e-07
9e-07
1
8e-07
9e-07
9e-07
1
8e-07
9e-07
9e-07
1
8e-07
9e-07
9e-07
2
8e-07
9e-07
9e-07
2
8e-07
9e-07
9e-07
3
8e-07
9e-07
9e-07
5
8e-07
9e-07
9e-07
9
8e-07
9e-07
9e-07
24
1e-06
9e-07
9e-07
9
1e-06
9e-07
9e-07
4
1e-06
9e-07
9e-07
4
1e-06
9e-07
9e-07
2
1e-06
9e-07
9e-07
2
1e-06
9e-07
9e-07
1
1e-06
9e-07
9e-07
1
1e-06
9e-07
9e-07
1
1e-06
9e-07
9e-07
0
1e-06
9e-07
9e-07
1
1e-06
9e-07
9e-07
0
1e-06
9e-07
9e-07
0
1e-06
9e-07
9e-07
0
1e-06
9e-07
9e-07
0
1e-06
9e-07
1e-06
9e-07
9e-07
0
1e-06
9e-07
1e-06
9e-07
9e-07
0
1e-06
9e-07
1e-06
9e-07
9e-07
0
1e-06
9e-07
1e-06
9e-07
1e-06
9e-07
1e-06
9e-07
1e-06
9e-07
1e-06
9e-07
9e-07
0
1e-06
9e-07
1e-06
9e-07
1e-06
1e-06
0
9e-07
1e-06
9e-07
1e-06
9e-07
1e-06
9e-07
1e-06
9e-07
1e-06
1e-06
0
9e-07
1e-06
9e-07
1e-06
9e-07
1e-06
1e-06
0
9e-07
1e-06
1e-06
0
9e-07
1e-06
9e-07
1e-06
1e-06
0
9e-07
1e-06
1e-06
0
9e-07
1e-06
1e-06
0
9e-07
1e-06
1e-06
0
9e-07
1e-06
1e-06
0
9e-07
1e-06
1e-06
1
9e-07
1e-06
1e-06
1
9e-07
1e-06
1e-06
1
9e-07
1e-06
1e-06
1
9e-07
1e-06
1e-06
2
9e-07
1e-06
1e-06
2
9e-07
1e-06
1e-06
4
9e-07
1e-06
1e-06
5
9e-07
1e-06
1e-06
15
9e-07
1e-06
1e-06
1
1.1e-06
1e-06
1e-06
15
1.1e-06
1e-06
1e-06
6
1.1e-06
1e-06
1e-06
3
1.1e-06
1e-06
1e-06
3
1.1e-06
1e-06
1e-06
1
1.1e-06
1e-06
1e-06
2
1.1e-06
1e-06
1e-06
0
1.1e-06
1e-06
1e-06
1
1.1e-06
1e-06
1e-06
1
1.1e-06
1e-06
1e-06
0
1.1e-06
1e-06
1e-06
0
1.1e-06
1e-06
1e-06
0
1.1e-06
1e-06
1e-06
0
1.1e-06
1e-06
1.1e-06
1e-06
1e-06
0
1.1e-06
1e-06
1e-06
0
1.1e-06
1e-06
1.1e-06
1e-06
1.1e-06
1e-06
1e-06
0
1.1e-06
1e-06
1.1e-06
1e-06
1.1e-06
1e-06
1.1e-06
1e-06
1.1e-06
1e-06
1.1e-06
1e-06
1.1e-06
1e-06
1.1e-06
1e-06
1.1e-06
1e-06
1.1e-06
1e-06
1.1e-06
1e-06
1.1e-06
1e-06
1.1e-06
1e-06
1.1e-06
1.1e-06
0
1e-06
1.1e-06
1e-06
1.1e-06
1.1e-06
0
1e-06
1.1e-06
1e-06
1.1e-06
1.1e-06
0
1e-06
1.1e-06
1.1e-06
0
1e-06
1.1e-06
1.1e-06
0
1e-06
1.1e-06
1.1e-06
0
1e-06
1.1e-06
1.1e-06
0
1e-06
1.1e-06
1.1e-06
0
1e-06
1.1e-06
1.1e-06
1
1e-06
1.1e-06
1.1e-06
1
1e-06
1.1e-06
1.1e-06
1
1e-06
1.1e-06
1.1e-06
2
1e-06
1.1e-06
1.1e-06
2
1e-06
1.1e-06
1.1e-06
4
1e-06
1.1e-06
1.1e-06
6
1e-06
1.1e-06
1.1e-06
30
1.2e-06
1.1e-06
1.1e-06
6
1.2e-06
1.1e-06
1.1e-06
4
1.2e-06
1.1e-06
1.1e-06
2
1.2e-06
1.1e-06
1.1e-06
2
1.2e-06
1.1e-06
1.1e-06
1
1.2e-06
1.1e-06
1.1e-06
1
1.2e-06
1.1e-06
1.1e-06
0
1.2e-06
1.1e-06
1.1e-06
0
1.2e-06
1.1e-06
1.1e-06
1
1.2e-06
1.1e-06
1.1e-06
0
1.2e-06
1.1e-06
1.2e-06
1.1e-06
1.1e-06
0
1.2e-06
1.1e-06
1.1e-06
0
1.2e-06
1.1e-06
1.2e-06
1.1e-06
1.1e-06
0
1.2e-06
1.1e-06
1.2e-06
1.1e-06
1.1e-06
0
1.2e-06
1.1e-06
1.2e-06
1.1e-06
1.2e-06
1.1e-06
1.2e-06
1.1e-06
1.2e-06
1.1e-06
1.2e-06
1.1e-06
1.2e-06
1.1e-06
1.2e-06
1.1e-06
1.2e-06
1.1e-06
1.2e-06
1.1e-06
1.2e-06
1.2e-06
0
1.1e-06
1.2e-06
1.1e-06
1.2e-06
1.1e-06
1.2e-06
1.2e-06
0
1.1e-06
1.2e-06
1.1e-06
1.2e-06
1.2e-06
0
1.1e-06
1.2e-06
1.2e-06
0
1.1e-06
1.2e-06
1.2e-06
0
1.1e-06
1.2e-06
1.2e-06
0
1.1e-06
1.2e-06
1.2e-06
0
1.1e-06
1.2e-06
1.2e-06
0
1.1e-06
1.2e-06
1.2e-06
1
1.1e-06
1.2e-06
1.2e-06
1
1.1e-06
1.2e-06
1.2e-06
2
1.1e-06
1.2e-06
1.2e-06
2
1.1e-06
1.2e-06
1.2e-06
3
1.1e-06
1.2e-06
1.2e-06
5
1.1e-06
1.2e-06
1.2e-06
32
1.3e-06
1.2e-06
1.2e-06
5
1.3e-06
1.2e-06
1.2e-06
3
1.3e-06
1.2e-06
1.2e-06
2
1.3e-06
1.2e-06
1.2e-06
1
1.3e-06
1.2e-06
1.2e-06
1
1.3e-06
1.2e-06
1.2e-06
1
1.3e-06
1.2e-06
1.2e-06
0
1.3e-06
1.2e-06
1.2e-06
1
1.3e-06
1.2e-06
1.2e-06
0
1.3e-06
1.2e-06
1.2e-06
0
1.3e-06
1.2e-06
1.3e-06
1.2e-06
1.2e-06
0
1.3e-06
1.2e-06
1.3e-06
1.2e-06
1.2e-06
0
1.3e-06
1.2e-06
1.3e-06
1.2e-06
1.3e-06
1.2e-06
1.2e-06
0
1.3e-06
1.2e-06
1.3e-06
1.2e-06
1.3e-06
1.2e-06
1.3e-06
1.2e-06
1.3e-06
1.2e-06
1.3e-06
1.2e-06
1.3e-06
1.2e-06
1.3e-06
1.3e-06
0
1.2e-06
1.3e-06
1.2e-06
1.3e-06
1.2e-06
1.3e-06
1.3e-06
0
1.2e-06
1.3e-06
1.2e-06
1.3e-06
1.3e-06
0
1.2e-06
1.3e-06
1.3e-06
0
1.2e-06
1.3e-06
1.2e-06
1.3e-06
1.3e-06
0
1.2e-06
1.3e-06
1.3e-06
1
1.2e-06
1.3e-06
1.3e-06
0
1.2e-06
1.3e-06
1.3e-06
1
1.2e-06
1.3e-06
1.3e-06
1
1.2e-06
1.3e-06
1.3e-06
2
1.2e-06
1.3e-06
1.3e-06
2
1.2e-06
1.3e-06
1.3e-06
4
1.2e-06
1.3e-06
1.3e-06
7
1.2e-06
1.3e-06
1.3e-06
17
1.4e-06
1.3e-06
1.3e-06
8
1.4e-06
1.3e-06
1.3e-06
4
1.4e-06
1.3e-06
1.3e-06
2
1.4e-06
1.3e-06
1.3e-06
2
1.4e-06
1.3e-06
1.3e-06
1
1.4e-06
1.3e-06
1.3e-06
0
1.4e-06
1.3e-06
1.3e-06
1
1.4e-06
1.3e-06
1.3e-06
0
1.4e-06
1.3e-06
1.3e-06
0
1.4e-06
1.3e-06
1.3e-06
0
1.4e-06
1.3e-06
1.3e-06
0
1.4e-06
1.3e-06
1.4e-06
1.3e-06
1.3e-06
0
1.4e-06
1.3e-06
1.4e-06
1.3e-06
1.4e-06
1.3e-06
1.3e-06
0
1.4e-06
1.3e-06
1.4e-06
1.3e-06
1.4e-06
1.3e-06
1.4e-06
1.3e-06
1.4e-06
1.3e-06
1.4e-06
1.3e-06
1.4e-06
1.3e-06
1.4e-06
1.4e-06
0
1.3e-06
1.4e-06
1.3e-06
1.4e-06
1.3e-06
1.4e-06
1.4e-06
0
1.3e-06
1.4e-06
1.3e-06
1.4e-06
1.4e-06
0
1.3e-06
1.4e-06
1.4e-06
0
1.3e-06
1.4e-06
1.4e-06
0
1.3e-06
1.4e-06
1.4e-06
0
1.3e-06
1.4e-06
1.4e-06
0
1.3e-06
1.4e-06
1.4e-06
1
1.3e-06
1.4e-06
1.4e-06
1
1.3e-06
1.4e-06
1.4e-06
2
1.3e-06
1.4e-06
1.4e-06
2
1.3e-06
1.4e-06
1.4e-06
4
1.3e-06
1.4e-06
1.4e-06
11
1.3e-06
1.4e-06
1.4e-06
6
1.5e-06
1.4e-06
1.4e-06
10
1.5e-06
1.4e-06
1.4e-06
4
1.5e-06
1.4e-06
1.4e-06
3
1.5e-06
1.4e-06
1.4e-06
1
1.5e-06
1.4e-06
1.4e-06
1
1.5e-06
1.4e-06
1.4e-06
1
1.5e-06
1.4e-06
1.4e-06
0
1.5e-06
1.4e-06
1.4e-06
1
1.5e-06
1.4e-06
1.5e-06
1.4e-06
1.4e-06
0
1.5e-06
1.4e-06
1.4e-06
0
1.5e-06
1.4e-06
1.5e-06
1.4e-06
1.4e-06
0
1.5e-06
1.4e-06
1.5e-06
1.4e-06
1.5e-06
1.4e-06
1.4e-06
0
1.5e-06
1.4e-06
1.5e-06
1.4e-06
1.5e-06
1.4e-06
1.5e-06
1.4e-06
1.5e-06
1.4e-06
1.5e-06
1.5e-06
0
1.4e-06
1.5e-06
1.4e-06
1.5e-06
1.4e-06
1.5e-06
1.5e-06
0
1.4e-06
1.5e-06
1.4e-06
1.5e-06
1.5e-06
0
1.4e-06
1.5e-06
1.4e-06
1.5e-06
1.5e-06
0
1.4e-06
1.5e-06
1.5e-06
1
1.4e-06
1.5e-06
1.5e-06
0
1.4e-06
1.5e-06
1.5e-06
1
1.4e-06
1.5e-06
1.5e-06
1
1.4e-06
1.5e-06
1.5e-06
1
1.4e-06
1.5e-06
1.5e-06
3
1.4e-06
1.5e-06
1.5e-06
4
1.4e-06
1.5e-06
1.5e-06
28
1.6e-06
1.5e-06
1.5e-06
4
1.6e-06
1.5e-06
1.5e-06
3
1.6e-06
1.5e-06
1.5e-06
1
1.6e-06
1.5e-06
1.5e-06
1
1.6e-06
1.5e-06
1.5e-06
1
1.6e-06
1.5e-06
1.5e-06
0
1.6e-06
1.5e-06
1.5e-06
1
1.6e-06
1.5e-06
1.6e-06
1.5e-06
1.5e-06
0
1.6e-06
1.5e-06
1.5e-06
0
1.6e-06
1.5e-06
1.6e-06
1.5e-06
1.5e-06
0
1.6e-06
1.5e-06
1.6e-06
1.5e-06
1.6e-06
1.5e-06
1.6e-06
1.5e-06
1.6e-06
1.5e-06
1.6e-06
1.5e-06
1.6e-06
1.5e-06
1.6e-06
1.5e-06
1.6e-06
1.5e-06
1.6e-06
1.5e-06
1.6e-06
1.6e-06
0
1.5e-06
1.6e-06
1.5e-06
1.6e-06
1.6e-06
0
1.5e-06
1.6e-06
1.6e-06
0
1.5e-06
1.6e-06
1.5e-06
1.6e-06
1.6e-06
1
1.5e-06
1.6e-06
1.6e-06
0
1.5e-06
1.6e-06
1.6e-06
1
1.5e-06
1.6e-06
1.6e-06
1
1.5e-06
1.6e-06
1.6e-06
1
1.5e-06
1.6e-06
1.6e-06
3
1.5e-06
1.6e-06
1.6e-06
5
1.5e-06
1.6e-06
1.6e-06
21
1.7e-06
1.6e-06
1.6e-06
6
1.7e-06
1.6e-06
1.6e-06
3
1.7e-06
1.6e-06
1.6e-06
1
1.7e-06
1.6e-06
1.6e-06
1
1.7e-06
1.6e-06
1.6e-06
1
1.7e-06
1.6e-06
1.6e-06
0
1.7e-06
1.6e-06
1.6e-06
0
1.7e-06
1.6e-06
1.6e-06
0
1.7e-06
1.6e-06
1.6e-06
0
1.7e-06
1.6e-06
1.7e-06
1.6e-06
1.6e-06
0
1.7e-06
1.6e-06
1.7e-06
1.6e-06
1.7e-06
1.6e-06
1.6e-06
0
1.7e-06
1.6e-06
1.7e-06
1.6e-06
1.7e-06
1.6e-06
1.7e-06
1.6e-06
1.7e-06
1.6e-06
1.7e-06
1.7e-06
0
1.6e-06
1.7e-06
1.6e-06
1.7e-06
1.7e-06
0
1.6e-06
1.7e-06
1.6e-06
1.7e-06
1.7e-06
0
1.6e-06
1.7e-06
1.7e-06
0
1.6e-06
1.7e-06
1.7e-06
0
1.6e-06
1.7e-06
1.7e-06
0
1.6e-06
1.7e-06
1.7e-06
1
1.6e-06
1.7e-06
1.7e-06
1
1.6e-06
1.7e-06
1.7e-06
2
1.6e-06
1.7e-06
1.7e-06
2
1.6e-06
1.7e-06
1.7e-06
7
1.6e-06
1.7e-06
1.7e-06
15
1.8e-06
1.7e-06
1.7e-06
6
1.8e-06
1.7e-06
1.7e-06
3
1.8e-06
1.7e-06
1.7e-06
2
1.8e-06
1.7e-06
1.7e-06
1
1.8e-06
1.7e-06
1.7e-06
1
1.8e-06
1.7e-06
1.7e-06
0
1.8e-06
1.7e-06
1.7e-06
0
1.8e-06
1.7e-06
1.7e-06
0
1.8e-06
1.7e-06
1.8e-06
1.7e-06
1.7e-06
0
1.8e-06
1.7e-06
1.8e-06
1.7e-06
1.7e-06
0
1.8e-06
1.7e-06
1.8e-06
1.7e-06
1.8e-06
1.7e-06
1.8e-06
1.7e-06
1.8e-06
1.7e-06
1.8e-06
1.7e-06
1.8e-06
1.7e-06
1.8e-06
1.8e-06
0
1.7e-06
1.8e-06
1.7e-06
1.8e-06
1.7e-06
1.8e-06
1.8e-06
0
1.7e-06
1.8e-06
1.8e-06
0
1.7e-06
1.8e-06
1.8e-06
0
1.7e-06
1.8e-06
1.8e-06
0
1.7e-06
1.8e-06
1.8e-06
1
1.7e-06
1.8e-06
1.8e-06
1
1.7e-06
1.8e-06
1.8e-06
2
1.7e-06
1.8e-06
1.8e-06
3
1.7e-06
1.8e-06
1.8e-06
7
1.7e-06
1.8e-06
1.8e-06
10
1.9e-06
1.8e-06
1.8e-06
8
1.9e-06
1.8e-06
1.8e-06
3
1.9e-06
1.8e-06
1.8e-06
1
1.9e-06
1.8e-06
1.8e-06
1
1.9e-06
1.8e-06
1.8e-06
1
1.9e-06
1.8e-06
1.8e-06
0
1.9e-06
1.8e-06
1.8e-06
0
1.9e-06
1.8e-06
1.8e-06
0
1.9e-06
1.8e-06
1.8e-06
0
1.9e-06
1.8e-06
1.9e-06
1.8e-06
1.8e-06
0
1.9e-06
1.8e-06
1.9e-06
1.8e-06
1.9e-06
1.8e-06
1.9e-06
1.8e-06
1.9e-06
1.8e-06
1.9e-06
1.8e-06
1.9e-06
1.8e-06
1.9e-06
1.9e-06
0
1.8e-06
1.9e-06
1.8e-06
1.9e-06
1.8e-06
1.9e-06
1.9e-06
0
1.8e-06
1.9e-06
1.9e-06
0
1.8e-06
1.9e-06
1.9e-06
0
1.8e-06
1.9e-06
1.9e-06
0
1.8e-06
1.9e-06
1.9e-06
1
1.8e-06
1.9e-06
1.9e-06
1
1.8e-06
1.9e-06
1.9e-06
2
1.8e-06
1.9e-06
1.9e-06
4
1.8e-06
1.9e-06
1.9e-06
24
2e-06
1.9e-06
1.9e-06
4
2e-06
1.9e-06
1.9e-06
2
2e-06
1.9e-06
1.9e-06
1
2e-06
1.9e-06
1.9e-06
1
2e-06
1.9e-06
1.9e-06
0
2e-06
1.9e-06
1.9e-06
0
2e-06
1.9e-06
1.9e-06
0
2e-06
1.9e-06
2e-06
1.9e-06
1.9e-06
0
2e-06
1.9e-06
2e-06
1.9e-06
1.9e-06
0
2e-06
1.9e-06
2e-06
1.9e-06
2e-06
1.9e-06
2e-06
1.9e-06
2e-06
1.9e-06
2e-06
2e-06
0
1.9e-06
2e-06
1.9e-06
2e-06
2e-06
0
1.9e-06
2e-06
1.9e-06
2e-06
2e-06
0
1.9e-06
2e-06
2e-06
0
1.9e-06
2e-06
2e-06
0
1.9e-06
2e-06
2e-06
1
1.9e-06
2e-06
2e-06
1
1.9e-06
2e-06
2e-06
2
1.9e-06
2e-06
2e-06
5
1.9e-06
2e-06
2e-06
19
2.1e-06
2e-06
2e-06
5
2.1e-06
2e-06
2e-06
2
2.1e-06
2e-06
2e-06
1
2.1e-06
2e-06
2e-06
1
2.1e-06
2e-06
2e-06
0
2.1e-06
2e-06
2e-06
0
2.1e-06
2e-06
2e-06
0
2.1e-06
2e-06
2.1e-06
2e-06
2e-06
0
2.1e-06
2e-06
2.1e-06
2e-06
2.1e-06
2e-06
2e-06
0
2.1e-06
2e-06
2.1e-06
2e-06
2.1e-06
2.1e-06
0
2e-06
2.1e-06
2e-06
2.1e-06
2e-06
2.1e-06
2.1e-06
0
2e-06
2.1e-06
2e-06
2.1e-06
2.1e-06
0
2e-06
2.1e-06
2.1e-06
0
2e-06
2.1e-06
2.1e-06
0
2e-06
2.1e-06
2.1e-06
1
2e-06
2.1e-06
2.1e-06
1
2e-06
2.1e-06
2.1e-06
3
2e-06
2.1e-06
2.1e-06
5
2e-06
2.1e-06
2.1e-06
15
2.2e-06
2.1e-06
2.1e-06
5
2.2e-06
2.1e-06
2.1e-06
2
2.2e-06
2.1e-06
2.1e-06
1
2.2e-06
2.1e-06
2.1e-06
1
2.2e-06
2.1e-06
2.1e-06
0
2.2e-06
2.1e-06
2.1e-06
0
2.2e-06
2.1e-06
2.1e-06
0
2.2e-06
2.1e-06
2.1e-06
0
2.2e-06
2.1e-06
2.2e-06
2.1e-06
2.2e-06
2.1e-06
2.1e-06
0
2.2e-06
2.1e-06
2.2e-06
2.1e-06
2.2e-06
2.1e-06
2.2e-06
2.1e-06
2.2e-06
2.2e-06
0
2.1e-06
2.2e-06
2.1e-06
2.2e-06
2.2e-06
0
2.1e-06
2.2e-06
2.1e-06
2.2e-06
2.2e-06
0
2.1e-06
2.2e-06
2.2e-06
0
2.1e-06
2.2e-06
2.2e-06
1
2.1e-06
2.2e-06
2.2e-06
1
2.1e-06
2.2e-06
2.2e-06
2
2.1e-06
2.2e-06
2.2e-06
4
2.1e-06
2.2e-06
2.2e-06
19
2.3e-06
2.2e-06
2.2e-06
4
2.3e-06
2.2e-06
2.2e-06
2
2.3e-06
2.2e-06
2.2e-06
1
2.3e-06
2.2e-06
2.2e-06
1
2.3e-06
2.2e-06
2.2e-06
0
2.3e-06
2.2e-06
2.2e-06
0
2.3e-06
2.2e-06
2.3e-06
2.2e-06
2.2e-06
0
2.3e-06
2.2e-06
2.3e-06
2.2e-06
2.3e-06
2.2e-06
2.3e-06
2.2e-06
2.3e-06
2.2e-06
2.3e-06
2.2e-06
2.3e-06
2.2e-06
2.3e-06
2.2e-06
2.3e-06
2.2e-06
2.3e-06
2.3e-06
0
2.2e-06
2.3e-06
2.3e-06
0
2.2e-06
2.3e-06
2.3e-06
0
2.2e-06
2.3e-06
2.3e-06
0
2.2e-06
2.3e-06
2.3e-06
1
2.2e-06
2.3e-06
2.3e-06
1
2.2e-06
2.3e-06
2.3e-06
3
2.2e-06
2.3e-06
2.3e-06
8
2.2e-06
2.3e-06
2.3e-06
4
2.4e-06
2.3e-06
2.3e-06
8
2.4e-06
2.3e-06
2.3e-06
2
2.4e-06
2.3e-06
2.3e-06
2
2.4e-06
2.3e-06
2.3e-06
0
2.4e-06
2.3e-06
2.3e-06
1
2.4e-06
2.3e-06
2.4e-06
2.3e-06
2.3e-06
0
2.4e-06
2.3e-06
2.3e-06
0
2.4e-06
2.3e-06
2.4e-06
2.3e-06
2.4e-06
2.3e-06
2.4e-06
2.3e-06
2.3e-06
0
2.4e-06
2.4e-06
0
2.3e-06
2.4e-06
2.3e-06
2.4e-06
2.3e-06
2.4e-06
2.3e-06
2.4e-06
2.4e-06
0
2.3e-06
2.4e-06
2.4e-06
0
2.3e-06
2.4e-06
2.4e-06
0
2.3e-06
2.4e-06
2.4e-06
0
2.3e-06
2.4e-06
2.4e-06
1
2.3e-06
2.4e-06
2.4e-06
1
2.3e-06
2.4e-06
2.4e-06
3
2.3e-06
2.4e-06
2.4e-06
22
2.5e-06
2.4e-06
2.4e-06
3
2.5e-06
2.4e-06
2.4e-06
2
2.5e-06
2.4e-06
2.4e-06
0
2.5e-06
2.4e-06
2.4e-06
1
2.5e-06
2.4e-06
2.4e-06
0
2.5e-06
2.4e-06
2.5e-06
2.4e-06
2.4e-06
0
2.5e-06
2.4e-06
2.5e-06
2.4e-06
2.4e-06
0
2.5e-06
2.4e-06
2.5e-06
2.4e-06
2.5e-06
2.4e-06
2.5e-06
2.5e-06
0
2.4e-06
2.5e-06
2.4e-06
2.5e-06
2.4e-06
2.5e-06
2.5e-06
0
2.4e-06
2.5e-06
2.5e-06
0
2.4e-06
2.5e-06
2.5e-06
0
2.4e-06
2.5e-06
2.5e-06
0
2.4e-06
2.5e-06
2.5e-06
1
2.4e-06
2.5e-06
2.5e-06
2
2.4e-06
2.5e-06
2.5e-06
5
2.4e-06
2.5e-06
2.5e-06
13
2.6e-06
2.5e-06
2.5e-06
4
2.6e-06
2.5e-06
2.5e-06
2
2.6e-06
2.5e-06
2.5e-06
1
2.6e-06
2.5e-06
2.5e-06
1
2.6e-06
2.5e-06
2.5e-06
0
2.6e-06
2.5e-06
2.5e-06
0
2.6e-06
2.5e-06
2.6e-06
2.5e-06
2.5e-06
0
2.6e-06
2.5e-06
2.6e-06
2.5e-06
2.6e-06
2.5e-06
2.6e-06
2.5e-06
2.6e-06
2.5e-06
2.6e-06
2.5e-06
2.6e-06
2.6e-06
0
2.5e-06
2.6e-06
2.5e-06
2.6e-06
2.6e-06
0
2.5e-06
2.6e-06
2.6e-06
0
2.5e-06
2.6e-06
2.6e-06
0
2.5e-06
2.6e-06
2.6e-06
1
2.5e-06
2.6e-06
2.6e-06
2
2.5e-06
2.6e-06
2.6e-06
5
2.5e-06
2.6e-06
2.6e-06
13
2.7e-06
2.6e-06
2.6e-06
4
2.7e-06
2.6e-06
2.6e-06
2
2.7e-06
2.6e-06
2.6e-06
1
2.7e-06
2.6e-06
2.6e-06
0
2.7e-06
2.6e-06
2.6e-06
0
2.7e-06
2.6e-06
2.6e-06
0
2.7e-06
2.6e-06
2.7e-06
2.6e-06
2.6e-06
0
2.7e-06
2.6e-06
2.7e-06
2.6e-06
2.7e-06
2.6e-06
2.7e-06
2.6e-06
2.7e-06
2.6e-06
2.7e-06
2.6e-06
2.7e-06
2.7e-06
0
2.6e-06
2.7e-06
2.6e-06
2.7e-06
2.7e-06
0
2.6e-06
2.7e-06
2.7e-06
0
2.6e-06
2.7e-06
2.7e-06
1
2.6e-06
2.7e-06
2.7e-06
1
2.6e-06
2.7e-06
2.7e-06
3
2.6e-06
2.7e-06
2.7e-06
20
2.8e-06
2.7e-06
2.7e-06
3
2.8e-06
2.7e-06
2.7e-06
1
2.8e-06
2.7e-06
2.7e-06
1
2.8e-06
2.7e-06
2.7e-06
0
2.8e-06
2.7e-06
2.7e-06
0
2.8e-06
2.7e-06
2.7e-06
0
2.8e-06
2.7e-06
2.8e-06
2.7e-06
2.8e-06
2.7e-06
2.8e-06
2.7e-06
2.8e-06
2.7e-06
2.8e-06
2.7e-06
2.8e-06
2.7e-06
2.8e-06
2.7e-06
2.8e-06
2.8e-06
0
2.7e-06
2.8e-06
2.8e-06
0
2.7e-06
2.8e-06
2.8e-06
0
2.7e-06
2.8e-06
2.8e-06
0
2.7e-06
2.8e-06
2.8e-06
2
2.7e-06
2.8e-06
2.8e-06
2
2.7e-06
2.8e-06
2.8e-06
21
2.9e-06
2.8e-06
2.8e-06
2
2.9e-06
2.8e-06
2.8e-06
1
2.9e-06
2.8e-06
2.8e-06
1
2.9e-06
2.8e-06
2.8e-06
0
2.9e-06
2.8e-06
2.8e-06
0
2.9e-06
2.8e-06
2.9e-06
2.8e-06
2.8e-06
0
2.9e-06
2.8e-06
2.9e-06
2.8e-06
2.9e-06
2.8e-06
2.9e-06
2.8e-06
2.9e-06
2.8e-06
2.9e-06
2.9e-06
0
2.8e-06
2.9e-06
2.8e-06
