# Pulseq sequence file
# Created by MATLAB mr toolbox

[VERSION]
major 1
minor 3
revision 0

[DEFINITIONS]
offsets_ppm -1560 -4 -3.75 -3.5 -3.25 -3 -2.75 -2.5 -2.25 -2 -1.75 -1.5 -1.25 -1 -0.75 -0.5 -0.25 0 0.25 0.5 0.75 1 1.25 1.5 1.75 2 2.25 2.5 2.75 3 3.25 3.5 3.75 4 
run_m0_scan 0 

# Format of blocks:
#  #  D RF  GX  GY  GZ ADC EXT
[BLOCKS]
   1  1  0   0   0   0  0  0
   2  0  1   0   0   0  0  0
   3  0  1   0   0   0  0  0
   4  2  0   0   0   0  0  0
   5  0  2   0   0   0  0  0
   6  0  2   0   0   0  0  0
   7  2  0   0   0   0  0  0
   8  0  3   0   0   0  0  0
   9  0  3   0   0   0  0  0
  10  2  0   0   0   0  0  0
  11  0  4   0   0   0  0  0
  12  0  4   0   0   0  0  0
  13  2  0   0   0   0  0  0
  14  0  5   0   0   0  0  0
  15  0  5   0   0   0  0  0
  16  2  0   0   0   0  0  0
  17  0  6   0   0   0  0  0
  18  0  6   0   0   0  0  0
  19  2  0   0   0   0  0  0
  20  0  7   0   0   0  0  0
  21  0  7   0   0   0  0  0
  22  2  0   0   0   0  0  0
  23  0  8   0   0   0  0  0
  24  0  8   0   0   0  0  0
  25  2  0   0   0   0  0  0
  26  0  9   0   0   0  0  0
  27  0  9   0   0   0  0  0
  28  2  0   0   0   0  0  0
  29  0 10   0   0   0  0  0
  30  0 10   0   0   0  0  0
  31  2  0   0   0   0  0  0
  32  0 11   0   0   0  0  0
  33  0 11   0   0   0  0  0
  34  2  0   0   0   0  0  0
  35  0 12   0   0   0  0  0
  36  0 12   0   0   0  0  0
  37  2  0   0   0   0  0  0
  38  0 13   0   0   0  0  0
  39  0 13   0   0   0  0  0
  40  2  0   0   0   0  0  0
  41  0 14   0   0   0  0  0
  42  0 14   0   0   0  0  0
  43  2  0   0   0   0  0  0
  44  0 15   0   0   0  0  0
  45  0 15   0   0   0  0  0
  46  2  0   0   0   0  0  0
  47  0 16   0   0   0  0  0
  48  0 16   0   0   0  0  0
  49  2  0   0   0   0  0  0
  50  0 17   0   0   0  0  0
  51  0 17   0   0   0  0  0
  52  2  0   0   0   0  0  0
  53  0 18   0   0   0  0  0
  54  0 18   0   0   0  0  0
  55  2  0   0   0   0  0  0
  56  0 19   0   0   0  0  0
  57  0 19   0   0   0  0  0
  58  2  0   0   0   0  0  0
  59  0 20   0   0   0  0  0
  60  0 20   0   0   0  0  0
  61  2  0   0   0   0  0  0
  62  0 21   0   0   0  0  0
  63  0 21   0   0   0  0  0
  64  2  0   0   0   0  0  0
  65  0 22   0   0   0  0  0
  66  0 22   0   0   0  0  0
  67  2  0   0   0   0  0  0
  68  0 23   0   0   0  0  0
  69  0 23   0   0   0  0  0
  70  2  0   0   0   0  0  0
  71  0 24   0   0   0  0  0
  72  0 24   0   0   0  0  0
  73  2  0   0   0   0  0  0
  74  0 25   0   0   0  0  0
  75  0 25   0   0   0  0  0
  76  2  0   0   0   0  0  0
  77  0 26   0   0   0  0  0
  78  0 26   0   0   0  0  0
  79  2  0   0   0   0  0  0
  80  0 27   0   0   0  0  0
  81  0 27   0   0   0  0  0
  82  2  0   0   0   0  0  0
  83  0 28   0   0   0  0  0
  84  0 28   0   0   0  0  0
  85  2  0   0   0   0  0  0
  86  0 29   0   0   0  0  0
  87  0 29   0   0   0  0  0
  88  2  0   0   0   0  0  0
  89  0 30   0   0   0  0  0
  90  0 30   0   0   0  0  0
  91  2  0   0   0   0  0  0
  92  0 31   0   0   0  0  0
  93  0 31   0   0   0  0  0
  94  2  0   0   0   0  0  0
  95  0 32   0   0   0  0  0
  96  0 32   0   0   0  0  0
  97  2  0   0   0   0  0  0
  98  0 33   0   0   0  0  0
  99  0 33   0   0   0  0  0
 100  2  0   0   0   0  0  0
 101  0 34   0   0   0  0  0
 102  0 34   0   0   0  0  0
 103  2  0   0   0   0  0  0
 104  0 35   0   0   0  0  0
 105  0 35   0   0   0  0  0
 106  2  0   0   0   0  0  0
 107  0 36   0   0   0  0  0
 108  0 36   0   0   0  0  0
 109  0  0   1   1   1  0  0
 110  0  0   0   0   0  1  0
 111  1  0   0   0   0  0  0
 112  0 37   0   0   0  0  0
 113  0 37   0   0   0  0  0
 114  2  0   0   0   0  0  0
 115  0 38   0   0   0  0  0
 116  0 38   0   0   0  0  0
 117  2  0   0   0   0  0  0
 118  0 39   0   0   0  0  0
 119  0 39   0   0   0  0  0
 120  2  0   0   0   0  0  0
 121  0 40   0   0   0  0  0
 122  0 40   0   0   0  0  0
 123  2  0   0   0   0  0  0
 124  0 41   0   0   0  0  0
 125  0 41   0   0   0  0  0
 126  2  0   0   0   0  0  0
 127  0 42   0   0   0  0  0
 128  0 42   0   0   0  0  0
 129  2  0   0   0   0  0  0
 130  0 43   0   0   0  0  0
 131  0 43   0   0   0  0  0
 132  2  0   0   0   0  0  0
 133  0 44   0   0   0  0  0
 134  0 44   0   0   0  0  0
 135  2  0   0   0   0  0  0
 136  0 45   0   0   0  0  0
 137  0 45   0   0   0  0  0
 138  2  0   0   0   0  0  0
 139  0 46   0   0   0  0  0
 140  0 46   0   0   0  0  0
 141  2  0   0   0   0  0  0
 142  0 47   0   0   0  0  0
 143  0 47   0   0   0  0  0
 144  2  0   0   0   0  0  0
 145  0 48   0   0   0  0  0
 146  0 48   0   0   0  0  0
 147  2  0   0   0   0  0  0
 148  0 49   0   0   0  0  0
 149  0 49   0   0   0  0  0
 150  2  0   0   0   0  0  0
 151  0 50   0   0   0  0  0
 152  0 50   0   0   0  0  0
 153  2  0   0   0   0  0  0
 154  0 51   0   0   0  0  0
 155  0 51   0   0   0  0  0
 156  2  0   0   0   0  0  0
 157  0 52   0   0   0  0  0
 158  0 52   0   0   0  0  0
 159  2  0   0   0   0  0  0
 160  0 53   0   0   0  0  0
 161  0 53   0   0   0  0  0
 162  2  0   0   0   0  0  0
 163  0 54   0   0   0  0  0
 164  0 54   0   0   0  0  0
 165  2  0   0   0   0  0  0
 166  0 55   0   0   0  0  0
 167  0 55   0   0   0  0  0
 168  2  0   0   0   0  0  0
 169  0 56   0   0   0  0  0
 170  0 56   0   0   0  0  0
 171  2  0   0   0   0  0  0
 172  0 57   0   0   0  0  0
 173  0 57   0   0   0  0  0
 174  2  0   0   0   0  0  0
 175  0 58   0   0   0  0  0
 176  0 58   0   0   0  0  0
 177  2  0   0   0   0  0  0
 178  0 59   0   0   0  0  0
 179  0 59   0   0   0  0  0
 180  2  0   0   0   0  0  0
 181  0 60   0   0   0  0  0
 182  0 60   0   0   0  0  0
 183  2  0   0   0   0  0  0
 184  0 61   0   0   0  0  0
 185  0 61   0   0   0  0  0
 186  2  0   0   0   0  0  0
 187  0 62   0   0   0  0  0
 188  0 62   0   0   0  0  0
 189  2  0   0   0   0  0  0
 190  0 63   0   0   0  0  0
 191  0 63   0   0   0  0  0
 192  2  0   0   0   0  0  0
 193  0 64   0   0   0  0  0
 194  0 64   0   0   0  0  0
 195  2  0   0   0   0  0  0
 196  0 65   0   0   0  0  0
 197  0 65   0   0   0  0  0
 198  2  0   0   0   0  0  0
 199  0 66   0   0   0  0  0
 200  0 66   0   0   0  0  0
 201  2  0   0   0   0  0  0
 202  0 67   0   0   0  0  0
 203  0 67   0   0   0  0  0
 204  2  0   0   0   0  0  0
 205  0 68   0   0   0  0  0
 206  0 68   0   0   0  0  0
 207  2  0   0   0   0  0  0
 208  0 69   0   0   0  0  0
 209  0 69   0   0   0  0  0
 210  2  0   0   0   0  0  0
 211  0 70   0   0   0  0  0
 212  0 70   0   0   0  0  0
 213  2  0   0   0   0  0  0
 214  0 71   0   0   0  0  0
 215  0 71   0   0   0  0  0
 216  2  0   0   0   0  0  0
 217  0 72   0   0   0  0  0
 218  0 72   0   0   0  0  0
 219  0  0   1   1   1  0  0
 220  0  0   0   0   0  1  0
 221  1  0   0   0   0  0  0
 222  0 73   0   0   0  0  0
 223  0 73   0   0   0  0  0
 224  2  0   0   0   0  0  0
 225  0 74   0   0   0  0  0
 226  0 74   0   0   0  0  0
 227  2  0   0   0   0  0  0
 228  0 75   0   0   0  0  0
 229  0 75   0   0   0  0  0
 230  2  0   0   0   0  0  0
 231  0 76   0   0   0  0  0
 232  0 76   0   0   0  0  0
 233  2  0   0   0   0  0  0
 234  0 77   0   0   0  0  0
 235  0 77   0   0   0  0  0
 236  2  0   0   0   0  0  0
 237  0 78   0   0   0  0  0
 238  0 78   0   0   0  0  0
 239  2  0   0   0   0  0  0
 240  0 79   0   0   0  0  0
 241  0 79   0   0   0  0  0
 242  2  0   0   0   0  0  0
 243  0 80   0   0   0  0  0
 244  0 80   0   0   0  0  0
 245  2  0   0   0   0  0  0
 246  0 81   0   0   0  0  0
 247  0 81   0   0   0  0  0
 248  2  0   0   0   0  0  0
 249  0 82   0   0   0  0  0
 250  0 82   0   0   0  0  0
 251  2  0   0   0   0  0  0
 252  0 83   0   0   0  0  0
 253  0 83   0   0   0  0  0
 254  2  0   0   0   0  0  0
 255  0 84   0   0   0  0  0
 256  0 84   0   0   0  0  0
 257  2  0   0   0   0  0  0
 258  0 85   0   0   0  0  0
 259  0 85   0   0   0  0  0
 260  2  0   0   0   0  0  0
 261  0 86   0   0   0  0  0
 262  0 86   0   0   0  0  0
 263  2  0   0   0   0  0  0
 264  0 87   0   0   0  0  0
 265  0 87   0   0   0  0  0
 266  2  0   0   0   0  0  0
 267  0 88   0   0   0  0  0
 268  0 88   0   0   0  0  0
 269  2  0   0   0   0  0  0
 270  0 89   0   0   0  0  0
 271  0 89   0   0   0  0  0
 272  2  0   0   0   0  0  0
 273  0 90   0   0   0  0  0
 274  0 90   0   0   0  0  0
 275  2  0   0   0   0  0  0
 276  0 91   0   0   0  0  0
 277  0 91   0   0   0  0  0
 278  2  0   0   0   0  0  0
 279  0 92   0   0   0  0  0
 280  0 92   0   0   0  0  0
 281  2  0   0   0   0  0  0
 282  0 93   0   0   0  0  0
 283  0 93   0   0   0  0  0
 284  2  0   0   0   0  0  0
 285  0 94   0   0   0  0  0
 286  0 94   0   0   0  0  0
 287  2  0   0   0   0  0  0
 288  0 95   0   0   0  0  0
 289  0 95   0   0   0  0  0
 290  2  0   0   0   0  0  0
 291  0 96   0   0   0  0  0
 292  0 96   0   0   0  0  0
 293  2  0   0   0   0  0  0
 294  0 97   0   0   0  0  0
 295  0 97   0   0   0  0  0
 296  2  0   0   0   0  0  0
 297  0 98   0   0   0  0  0
 298  0 98   0   0   0  0  0
 299  2  0   0   0   0  0  0
 300  0 99   0   0   0  0  0
 301  0 99   0   0   0  0  0
 302  2  0   0   0   0  0  0
 303  0 100   0   0   0  0  0
 304  0 100   0   0   0  0  0
 305  2  0   0   0   0  0  0
 306  0 101   0   0   0  0  0
 307  0 101   0   0   0  0  0
 308  2  0   0   0   0  0  0
 309  0 102   0   0   0  0  0
 310  0 102   0   0   0  0  0
 311  2  0   0   0   0  0  0
 312  0 103   0   0   0  0  0
 313  0 103   0   0   0  0  0
 314  2  0   0   0   0  0  0
 315  0 104   0   0   0  0  0
 316  0 104   0   0   0  0  0
 317  2  0   0   0   0  0  0
 318  0 105   0   0   0  0  0
 319  0 105   0   0   0  0  0
 320  2  0   0   0   0  0  0
 321  0 106   0   0   0  0  0
 322  0 106   0   0   0  0  0
 323  2  0   0   0   0  0  0
 324  0 107   0   0   0  0  0
 325  0 107   0   0   0  0  0
 326  2  0   0   0   0  0  0
 327  0 108   0   0   0  0  0
 328  0 108   0   0   0  0  0
 329  0  0   1   1   1  0  0
 330  0  0   0   0   0  1  0
 331  1  0   0   0   0  0  0
 332  0 109   0   0   0  0  0
[RF]
1      145.354 1 2 100 -199258 0
2      145.354 1 2 100 -199258 2.02103
3      145.354 1 2 100 -199258 4.04207
4      145.354 1 2 100 -199258 6.0631
5      145.354 1 2 100 -199258 1.80095
6      145.354 1 2 100 -199258 3.82198
7      145.354 1 2 100 -199258 5.84302
8      145.354 1 2 100 -199258 1.58087
9      145.354 1 2 100 -199258 3.6019
10      145.354 1 2 100 -199258 5.62294
11      145.354 1 2 100 -199258 1.36078
12      145.354 1 2 100 -199258 3.38182
13      145.354 1 2 100 -199258 5.40285
14      145.354 1 2 100 -199258 1.1407
15      145.354 1 2 100 -199258 3.16173
16      145.354 1 2 100 -199258 5.18277
17      145.354 1 2 100 -199258 0.920618
18      145.354 1 2 100 -199258 2.94165
19      145.354 1 2 100 -199258 4.96269
20      145.354 1 2 100 -199258 0.700534
21      145.354 1 2 100 -199258 2.72157
22      145.354 1 2 100 -199258 4.7426
23      145.354 1 2 100 -199258 0.480451
24      145.354 1 2 100 -199258 2.50148
25      145.354 1 2 100 -199258 4.52252
26      145.354 1 2 100 -199258 0.260368
27      145.354 1 2 100 -199258 2.2814
28      145.354 1 2 100 -199258 4.30244
29      145.354 1 2 100 -199258 0.0402844
30      145.354 1 2 100 -199258 2.06132
31      145.354 1 2 100 -199258 4.08235
32      145.354 1 2 100 -199258 6.10339
33      145.354 1 2 100 -199258 1.84124
34      145.354 1 2 100 -199258 3.86227
35      145.354 1 2 100 -199258 5.8833
36      145.354 1 2 100 -199258 1.62115
37      145.354 1 2 100 -510.917 0
38      145.354 1 2 100 -510.917 2.85678
39      145.354 1 2 100 -510.917 5.71356
40      145.354 1 2 100 -510.917 2.28716
41      145.354 1 2 100 -510.917 5.14394
42      145.354 1 2 100 -510.917 1.71754
43      145.354 1 2 100 -510.917 4.57432
44      145.354 1 2 100 -510.917 1.14792
45      145.354 1 2 100 -510.917 4.0047
46      145.354 1 2 100 -510.917 0.578293
47      145.354 1 2 100 -510.917 3.43508
48      145.354 1 2 100 -510.917 0.00867133
49      145.354 1 2 100 -510.917 2.86545
50      145.354 1 2 100 -510.917 5.72223
51      145.354 1 2 100 -510.917 2.29583
52      145.354 1 2 100 -510.917 5.15261
53      145.354 1 2 100 -510.917 1.72621
54      145.354 1 2 100 -510.917 4.58299
55      145.354 1 2 100 -510.917 1.15659
56      145.354 1 2 100 -510.917 4.01337
57      145.354 1 2 100 -510.917 0.586965
58      145.354 1 2 100 -510.917 3.44375
59      145.354 1 2 100 -510.917 0.0173427
60      145.354 1 2 100 -510.917 2.87412
61      145.354 1 2 100 -510.917 5.73091
62      145.354 1 2 100 -510.917 2.3045
63      145.354 1 2 100 -510.917 5.16128
64      145.354 1 2 100 -510.917 1.73488
65      145.354 1 2 100 -510.917 4.59166
66      145.354 1 2 100 -510.917 1.16526
67      145.354 1 2 100 -510.917 4.02204
68      145.354 1 2 100 -510.917 0.595636
69      145.354 1 2 100 -510.917 3.45242
70      145.354 1 2 100 -510.917 0.026014
71      145.354 1 2 100 -510.917 2.8828
72      145.354 1 2 100 -510.917 5.73958
73      145.354 1 2 100 -478.984 0
74      145.354 1 2 100 -478.984 0.322038
75      145.354 1 2 100 -478.984 0.644077
76      145.354 1 2 100 -478.984 0.966115
77      145.354 1 2 100 -478.984 1.28815
78      145.354 1 2 100 -478.984 1.61019
79      145.354 1 2 100 -478.984 1.93223
80      145.354 1 2 100 -478.984 2.25427
81      145.354 1 2 100 -478.984 2.57631
82      145.354 1 2 100 -478.984 2.89834
83      145.354 1 2 100 -478.984 3.22038
84      145.354 1 2 100 -478.984 3.54242
85      145.354 1 2 100 -478.984 3.86446
86      145.354 1 2 100 -478.984 4.1865
87      145.354 1 2 100 -478.984 4.50854
88      145.354 1 2 100 -478.984 4.83057
89      145.354 1 2 100 -478.984 5.15261
90      145.354 1 2 100 -478.984 5.47465
91      145.354 1 2 100 -478.984 5.79669
92      145.354 1 2 100 -478.984 6.11873
93      145.354 1 2 100 -478.984 0.15758
94      145.354 1 2 100 -478.984 0.479619
95      145.354 1 2 100 -478.984 0.801657
96      145.354 1 2 100 -478.984 1.1237
97      145.354 1 2 100 -478.984 1.44573
98      145.354 1 2 100 -478.984 1.76777
99      145.354 1 2 100 -478.984 2.08981
100      145.354 1 2 100 -478.984 2.41185
101      145.354 1 2 100 -478.984 2.73389
102      145.354 1 2 100 -478.984 3.05592
103      145.354 1 2 100 -478.984 3.37796
104      145.354 1 2 100 -478.984 3.7
105      145.354 1 2 100 -478.984 4.02204
106      145.354 1 2 100 -478.984 4.34408
107      145.354 1 2 100 -478.984 4.66612
108      145.354 1 2 100 -478.984 4.98815
109      145.354 1 2 100 -447.052 0
110      145.354 1 2 100 -447.052 4.07048
111      145.354 1 2 100 -447.052 1.85778
112      145.354 1 2 100 -447.052 5.92826
113      145.354 1 2 100 -447.052 3.71555
114      145.354 1 2 100 -447.052 1.50285
115      145.354 1 2 100 -447.052 5.57333
116      145.354 1 2 100 -447.052 3.36062
117      145.354 1 2 100 -447.052 1.14792
118      145.354 1 2 100 -447.052 5.2184
119      145.354 1 2 100 -447.052 3.00569
120      145.354 1 2 100 -447.052 0.792986
121      145.354 1 2 100 -447.052 4.86347
122      145.354 1 2 100 -447.052 2.65076
123      145.354 1 2 100 -447.052 0.438056
124      145.354 1 2 100 -447.052 4.50854
125      145.354 1 2 100 -447.052 2.29583
126      145.354 1 2 100 -447.052 0.0831258
127      145.354 1 2 100 -447.052 4.15361
128      145.354 1 2 100 -447.052 1.9409
129      145.354 1 2 100 -447.052 6.01138
130      145.354 1 2 100 -447.052 3.79868
131      145.354 1 2 100 -447.052 1.58597
132      145.354 1 2 100 -447.052 5.65645
133      145.354 1 2 100 -447.052 3.44375
134      145.354 1 2 100 -447.052 1.23104
135      145.354 1 2 100 -447.052 5.30152
136      145.354 1 2 100 -447.052 3.08882
137      145.354 1 2 100 -447.052 0.876111
138      145.354 1 2 100 -447.052 4.94659
139      145.354 1 2 100 -447.052 2.73389
140      145.354 1 2 100 -447.052 0.521182
141      145.354 1 2 100 -447.052 4.59166
142      145.354 1 2 100 -447.052 2.37896
143      145.354 1 2 100 -447.052 0.166252
144      145.354 1 2 100 -447.052 4.23673
145      145.354 1 2 100 -415.12 0
146      145.354 1 2 100 -415.12 1.53574
147      145.354 1 2 100 -415.12 3.07147
148      145.354 1 2 100 -415.12 4.60721
149      145.354 1 2 100 -415.12 6.14295
150      145.354 1 2 100 -415.12 1.3955
151      145.354 1 2 100 -415.12 2.93124
152      145.354 1 2 100 -415.12 4.46697
153      145.354 1 2 100 -415.12 6.00271
154      145.354 1 2 100 -415.12 1.25526
155      145.354 1 2 100 -415.12 2.791
156      145.354 1 2 100 -415.12 4.32674
157      145.354 1 2 100 -415.12 5.86247
158      145.354 1 2 100 -415.12 1.11502
159      145.354 1 2 100 -415.12 2.65076
160      145.354 1 2 100 -415.12 4.1865
161      145.354 1 2 100 -415.12 5.72223
162      145.354 1 2 100 -415.12 0.974786
163      145.354 1 2 100 -415.12 2.51052
164      145.354 1 2 100 -415.12 4.04626
165      145.354 1 2 100 -415.12 5.582
166      145.354 1 2 100 -415.12 0.834548
167      145.354 1 2 100 -415.12 2.37029
168      145.354 1 2 100 -415.12 3.90602
169      145.354 1 2 100 -415.12 5.44176
170      145.354 1 2 100 -415.12 0.694311
171      145.354 1 2 100 -415.12 2.23005
172      145.354 1 2 100 -415.12 3.76578
173      145.354 1 2 100 -415.12 5.30152
174      145.354 1 2 100 -415.12 0.554073
175      145.354 1 2 100 -415.12 2.08981
176      145.354 1 2 100 -415.12 3.62555
177      145.354 1 2 100 -415.12 5.16128
178      145.354 1 2 100 -415.12 0.413835
179      145.354 1 2 100 -415.12 1.94957
180      145.354 1 2 100 -415.12 3.48531
181      145.354 1 2 100 -383.188 0
182      145.354 1 2 100 -383.188 5.28418
183      145.354 1 2 100 -383.188 4.28517
184      145.354 1 2 100 -383.188 3.28617
185      145.354 1 2 100 -383.188 2.28716
186      145.354 1 2 100 -383.188 1.28815
187      145.354 1 2 100 -383.188 0.289147
188      145.354 1 2 100 -383.188 5.57333
189      145.354 1 2 100 -383.188 4.57432
190      145.354 1 2 100 -383.188 3.57531
191      145.354 1 2 100 -383.188 2.57631
192      145.354 1 2 100 -383.188 1.5773
193      145.354 1 2 100 -383.188 0.578293
194      145.354 1 2 100 -383.188 5.86247
195      145.354 1 2 100 -383.188 4.86347
196      145.354 1 2 100 -383.188 3.86446
197      145.354 1 2 100 -383.188 2.86545
198      145.354 1 2 100 -383.188 1.86645
199      145.354 1 2 100 -383.188 0.86744
200      145.354 1 2 100 -383.188 6.15162
201      145.354 1 2 100 -383.188 5.15261
202      145.354 1 2 100 -383.188 4.15361
203      145.354 1 2 100 -383.188 3.1546
204      145.354 1 2 100 -383.188 2.15559
205      145.354 1 2 100 -383.188 1.15659
206      145.354 1 2 100 -383.188 0.15758
207      145.354 1 2 100 -383.188 5.44176
208      145.354 1 2 100 -383.188 4.44275
209      145.354 1 2 100 -383.188 3.44375
210      145.354 1 2 100 -383.188 2.44474
211      145.354 1 2 100 -383.188 1.44573
212      145.354 1 2 100 -383.188 0.446727
213      145.354 1 2 100 -383.188 5.73091
214      145.354 1 2 100 -383.188 4.7319
215      145.354 1 2 100 -383.188 3.73289
216      145.354 1 2 100 -383.188 2.73389
217      145.354 1 2 100 -351.255 0
218      145.354 1 2 100 -351.255 2.74944
219      145.354 1 2 100 -351.255 5.49887
220      145.354 1 2 100 -351.255 1.96512
221      145.354 1 2 100 -351.255 4.71456
222      145.354 1 2 100 -351.255 1.18081
223      145.354 1 2 100 -351.255 3.93024
224      145.354 1 2 100 -351.255 0.396493
225      145.354 1 2 100 -351.255 3.14593
226      145.354 1 2 100 -351.255 5.89536
227      145.354 1 2 100 -351.255 2.36161
228      145.354 1 2 100 -351.255 5.11105
229      145.354 1 2 100 -351.255 1.5773
230      145.354 1 2 100 -351.255 4.32674
231      145.354 1 2 100 -351.255 0.792986
232      145.354 1 2 100 -351.255 3.54242
233      145.354 1 2 100 -351.255 0.00867133
234      145.354 1 2 100 -351.255 2.75811
235      145.354 1 2 100 -351.255 5.50754
236      145.354 1 2 100 -351.255 1.97379
237      145.354 1 2 100 -351.255 4.72323
238      145.354 1 2 100 -351.255 1.18948
239      145.354 1 2 100 -351.255 3.93891
240      145.354 1 2 100 -351.255 0.405164
241      145.354 1 2 100 -351.255 3.1546
242      145.354 1 2 100 -351.255 5.90404
243      145.354 1 2 100 -351.255 2.37029
244      145.354 1 2 100 -351.255 5.11972
245      145.354 1 2 100 -351.255 1.58597
246      145.354 1 2 100 -351.255 4.33541
247      145.354 1 2 100 -351.255 0.801657
248      145.354 1 2 100 -351.255 3.55109
249      145.354 1 2 100 -351.255 0.0173427
250      145.354 1 2 100 -351.255 2.76678
251      145.354 1 2 100 -351.255 5.51621
252      145.354 1 2 100 -351.255 1.98246
253      145.354 1 2 100 -319.323 0
254      145.354 1 2 100 -319.323 0.214692
255      145.354 1 2 100 -319.323 0.429384
256      145.354 1 2 100 -319.323 0.644077
257      145.354 1 2 100 -319.323 0.858769
258      145.354 1 2 100 -319.323 1.07346
259      145.354 1 2 100 -319.323 1.28815
260      145.354 1 2 100 -319.323 1.50285
261      145.354 1 2 100 -319.323 1.71754
262      145.354 1 2 100 -319.323 1.93223
263      145.354 1 2 100 -319.323 2.14692
264      145.354 1 2 100 -319.323 2.36161
265      145.354 1 2 100 -319.323 2.57631
266      145.354 1 2 100 -319.323 2.791
267      145.354 1 2 100 -319.323 3.00569
268      145.354 1 2 100 -319.323 3.22038
269      145.354 1 2 100 -319.323 3.43508
270      145.354 1 2 100 -319.323 3.64977
271      145.354 1 2 100 -319.323 3.86446
272      145.354 1 2 100 -319.323 4.07915
273      145.354 1 2 100 -319.323 4.29384
274      145.354 1 2 100 -319.323 4.50854
275      145.354 1 2 100 -319.323 4.72323
276      145.354 1 2 100 -319.323 4.93792
277      145.354 1 2 100 -319.323 5.15261
278      145.354 1 2 100 -319.323 5.3673
279      145.354 1 2 100 -319.323 5.582
280      145.354 1 2 100 -319.323 5.79669
281      145.354 1 2 100 -319.323 6.01138
282      145.354 1 2 100 -319.323 6.22607
283      145.354 1 2 100 -319.323 0.15758
284      145.354 1 2 100 -319.323 0.372273
285      145.354 1 2 100 -319.323 0.586965
286      145.354 1 2 100 -319.323 0.801657
287      145.354 1 2 100 -319.323 1.01635
288      145.354 1 2 100 -319.323 1.23104
289      145.354 1 2 100 -287.391 0
290      145.354 1 2 100 -287.391 3.96313
291      145.354 1 2 100 -287.391 1.64308
292      145.354 1 2 100 -287.391 5.60622
293      145.354 1 2 100 -287.391 3.28617
294      145.354 1 2 100 -287.391 0.966115
295      145.354 1 2 100 -287.391 4.92925
296      145.354 1 2 100 -287.391 2.6092
297      145.354 1 2 100 -287.391 0.289147
298      145.354 1 2 100 -287.391 4.25228
299      145.354 1 2 100 -287.391 1.93223
300      145.354 1 2 100 -287.391 5.89536
301      145.354 1 2 100 -287.391 3.57531
302      145.354 1 2 100 -287.391 1.25526
303      145.354 1 2 100 -287.391 5.2184
304      145.354 1 2 100 -287.391 2.89834
305      145.354 1 2 100 -287.391 0.578293
306      145.354 1 2 100 -287.391 4.54143
307      145.354 1 2 100 -287.391 2.22138
308      145.354 1 2 100 -287.391 6.18451
309      145.354 1 2 100 -287.391 3.86446
310      145.354 1 2 100 -287.391 1.54441
311      145.354 1 2 100 -287.391 5.50754
312      145.354 1 2 100 -287.391 3.18749
313      145.354 1 2 100 -287.391 0.86744
314      145.354 1 2 100 -287.391 4.83057
315      145.354 1 2 100 -287.391 2.51052
316      145.354 1 2 100 -287.391 0.190472
317      145.354 1 2 100 -287.391 4.15361
318      145.354 1 2 100 -287.391 1.83355
319      145.354 1 2 100 -287.391 5.79669
320      145.354 1 2 100 -287.391 3.47664
321      145.354 1 2 100 -287.391 1.15659
322      145.354 1 2 100 -287.391 5.11972
323      145.354 1 2 100 -287.391 2.79967
324      145.354 1 2 100 -287.391 0.479619
325      145.354 1 2 100 -255.458 0
326      145.354 1 2 100 -255.458 1.42839
327      145.354 1 2 100 -255.458 2.85678
328      145.354 1 2 100 -255.458 4.28517
329      145.354 1 2 100 -255.458 5.71356
330      145.354 1 2 100 -255.458 0.858769
331      145.354 1 2 100 -255.458 2.28716
332      145.354 1 2 100 -255.458 3.71555
333      145.354 1 2 100 -255.458 5.14394
334      145.354 1 2 100 -255.458 0.289147
335      145.354 1 2 100 -255.458 1.71754
336      145.354 1 2 100 -255.458 3.14593
337      145.354 1 2 100 -255.458 4.57432
338      145.354 1 2 100 -255.458 6.00271
339      145.354 1 2 100 -255.458 1.14792
340      145.354 1 2 100 -255.458 2.57631
341      145.354 1 2 100 -255.458 4.0047
342      145.354 1 2 100 -255.458 5.43309
343      145.354 1 2 100 -255.458 0.578293
344      145.354 1 2 100 -255.458 2.00668
345      145.354 1 2 100 -255.458 3.43508
346      145.354 1 2 100 -255.458 4.86347
347      145.354 1 2 100 -255.458 0.00867133
348      145.354 1 2 100 -255.458 1.43706
349      145.354 1 2 100 -255.458 2.86545
350      145.354 1 2 100 -255.458 4.29384
351      145.354 1 2 100 -255.458 5.72223
352      145.354 1 2 100 -255.458 0.86744
353      145.354 1 2 100 -255.458 2.29583
354      145.354 1 2 100 -255.458 3.72422
355      145.354 1 2 100 -255.458 5.15261
356      145.354 1 2 100 -255.458 0.297818
357      145.354 1 2 100 -255.458 1.72621
358      145.354 1 2 100 -255.458 3.1546
359      145.354 1 2 100 -255.458 4.58299
360      145.354 1 2 100 -255.458 6.01138
361      145.354 1 2 100 -223.526 0
362      145.354 1 2 100 -223.526 5.17683
363      145.354 1 2 100 -223.526 4.07048
364      145.354 1 2 100 -223.526 2.96413
365      145.354 1 2 100 -223.526 1.85778
366      145.354 1 2 100 -223.526 0.751423
367      145.354 1 2 100 -223.526 5.92826
368      145.354 1 2 100 -223.526 4.8219
369      145.354 1 2 100 -223.526 3.71555
370      145.354 1 2 100 -223.526 2.6092
371      145.354 1 2 100 -223.526 1.50285
372      145.354 1 2 100 -223.526 0.396493
373      145.354 1 2 100 -223.526 5.57333
374      145.354 1 2 100 -223.526 4.46697
375      145.354 1 2 100 -223.526 3.36062
376      145.354 1 2 100 -223.526 2.25427
377      145.354 1 2 100 -223.526 1.14792
378      145.354 1 2 100 -223.526 0.0415629
379      145.354 1 2 100 -223.526 5.2184
380      145.354 1 2 100 -223.526 4.11204
381      145.354 1 2 100 -223.526 3.00569
382      145.354 1 2 100 -223.526 1.89934
383      145.354 1 2 100 -223.526 0.792986
384      145.354 1 2 100 -223.526 5.96982
385      145.354 1 2 100 -223.526 4.86347
386      145.354 1 2 100 -223.526 3.75711
387      145.354 1 2 100 -223.526 2.65076
388      145.354 1 2 100 -223.526 1.54441
389      145.354 1 2 100 -223.526 0.438056
390      145.354 1 2 100 -223.526 5.61489
391      145.354 1 2 100 -223.526 4.50854
392      145.354 1 2 100 -223.526 3.40218
393      145.354 1 2 100 -223.526 2.29583
394      145.354 1 2 100 -223.526 1.18948
395      145.354 1 2 100 -223.526 0.0831258
396      145.354 1 2 100 -223.526 5.25996
397      145.354 1 2 100 -191.594 0
398      145.354 1 2 100 -191.594 2.64209
399      145.354 1 2 100 -191.594 5.28418
400      145.354 1 2 100 -191.594 1.64308
401      145.354 1 2 100 -191.594 4.28517
402      145.354 1 2 100 -191.594 0.644077
403      145.354 1 2 100 -191.594 3.28617
404      145.354 1 2 100 -191.594 5.92826
405      145.354 1 2 100 -191.594 2.28716
406      145.354 1 2 100 -191.594 4.92925
407      145.354 1 2 100 -191.594 1.28815
408      145.354 1 2 100 -191.594 3.93024
409      145.354 1 2 100 -191.594 0.289147
410      145.354 1 2 100 -191.594 2.93124
411      145.354 1 2 100 -191.594 5.57333
412      145.354 1 2 100 -191.594 1.93223
413      145.354 1 2 100 -191.594 4.57432
414      145.354 1 2 100 -191.594 0.933223
415      145.354 1 2 100 -191.594 3.57531
416      145.354 1 2 100 -191.594 6.2174
417      145.354 1 2 100 -191.594 2.57631
418      145.354 1 2 100 -191.594 5.2184
419      145.354 1 2 100 -191.594 1.5773
420      145.354 1 2 100 -191.594 4.21939
421      145.354 1 2 100 -191.594 0.578293
422      145.354 1 2 100 -191.594 3.22038
423      145.354 1 2 100 -191.594 5.86247
424      145.354 1 2 100 -191.594 2.22138
425      145.354 1 2 100 -191.594 4.86347
426      145.354 1 2 100 -191.594 1.22237
427      145.354 1 2 100 -191.594 3.86446
428      145.354 1 2 100 -191.594 0.223364
429      145.354 1 2 100 -191.594 2.86545
430      145.354 1 2 100 -191.594 5.50754
431      145.354 1 2 100 -191.594 1.86645
432      145.354 1 2 100 -191.594 4.50854
433      145.354 1 2 100 -159.661 0
434      145.354 1 2 100 -159.661 0.107346
435      145.354 1 2 100 -159.661 0.214692
436      145.354 1 2 100 -159.661 0.322038
437      145.354 1 2 100 -159.661 0.429384
438      145.354 1 2 100 -159.661 0.53673
439      145.354 1 2 100 -159.661 0.644077
440      145.354 1 2 100 -159.661 0.751423
441      145.354 1 2 100 -159.661 0.858769
442      145.354 1 2 100 -159.661 0.966115
443      145.354 1 2 100 -159.661 1.07346
444      145.354 1 2 100 -159.661 1.18081
445      145.354 1 2 100 -159.661 1.28815
446      145.354 1 2 100 -159.661 1.3955
447      145.354 1 2 100 -159.661 1.50285
448      145.354 1 2 100 -159.661 1.61019
449      145.354 1 2 100 -159.661 1.71754
450      145.354 1 2 100 -159.661 1.82488
451      145.354 1 2 100 -159.661 1.93223
452      145.354 1 2 100 -159.661 2.03958
453      145.354 1 2 100 -159.661 2.14692
454      145.354 1 2 100 -159.661 2.25427
455      145.354 1 2 100 -159.661 2.36161
456      145.354 1 2 100 -159.661 2.46896
457      145.354 1 2 100 -159.661 2.57631
458      145.354 1 2 100 -159.661 2.68365
459      145.354 1 2 100 -159.661 2.791
460      145.354 1 2 100 -159.661 2.89834
461      145.354 1 2 100 -159.661 3.00569
462      145.354 1 2 100 -159.661 3.11304
463      145.354 1 2 100 -159.661 3.22038
464      145.354 1 2 100 -159.661 3.32773
465      145.354 1 2 100 -159.661 3.43508
466      145.354 1 2 100 -159.661 3.54242
467      145.354 1 2 100 -159.661 3.64977
468      145.354 1 2 100 -159.661 3.75711
469      145.354 1 2 100 -127.729 0
470      145.354 1 2 100 -127.729 3.85579
471      145.354 1 2 100 -127.729 1.42839
472      145.354 1 2 100 -127.729 5.28418
473      145.354 1 2 100 -127.729 2.85678
474      145.354 1 2 100 -127.729 0.429384
475      145.354 1 2 100 -127.729 4.28517
476      145.354 1 2 100 -127.729 1.85778
477      145.354 1 2 100 -127.729 5.71356
478      145.354 1 2 100 -127.729 3.28617
479      145.354 1 2 100 -127.729 0.858769
480      145.354 1 2 100 -127.729 4.71456
481      145.354 1 2 100 -127.729 2.28716
