# Pulseq sequence file
# Created by MATLAB mr toolbox

[VERSION]
major 1
minor 3
revision 0

[DEFINITIONS]
offsets_ppm -4 -3.75 -3.5 -3.25 -3 -2.75 -2.5 -2.25 -2 -1.75 -1.5 -1.25 -1 -0.75 -0.5 -0.25 0 0.25 0.5 0.75 1 1.25 1.5 1.75 2 2.25 2.5 2.75 3 3.25 3.5 3.75 4 
run_m0_scan 1 

# Format of blocks:
#  #  D RF  GX  GY  GZ ADC EXT
[BLOCKS]
   1  1  0   0   0   0  0  0
   2  0  0   0   0   0  1  0
   3  2  0   0   0   0  0  0
   4  0  1   0   0   0  0  0
   5  0  1   0   0   0  0  0
   6  3  0   0   0   0  0  0
   7  0  2   0   0   0  0  0
   8  0  2   0   0   0  0  0
   9  3  0   0   0   0  0  0
  10  0  3   0   0   0  0  0
  11  0  3   0   0   0  0  0
  12  3  0   0   0   0  0  0
  13  0  4   0   0   0  0  0
  14  0  4   0   0   0  0  0
  15  3  0   0   0   0  0  0
  16  0  5   0   0   0  0  0
  17  0  5   0   0   0  0  0
  18  3  0   0   0   0  0  0
  19  0  6   0   0   0  0  0
  20  0  6   0   0   0  0  0
  21  3  0   0   0   0  0  0
  22  0  7   0   0   0  0  0
  23  0  7   0   0   0  0  0
  24  3  0   0   0   0  0  0
  25  0  8   0   0   0  0  0
  26  0  8   0   0   0  0  0
  27  3  0   0   0   0  0  0
  28  0  9   0   0   0  0  0
  29  0  9   0   0   0  0  0
  30  3  0   0   0   0  0  0
  31  0 10   0   0   0  0  0
  32  0 10   0   0   0  0  0
  33  3  0   0   0   0  0  0
  34  0 11   0   0   0  0  0
  35  0 11   0   0   0  0  0
  36  3  0   0   0   0  0  0
  37  0 12   0   0   0  0  0
  38  0 12   0   0   0  0  0
  39  3  0   0   0   0  0  0
  40  0 13   0   0   0  0  0
  41  0 13   0   0   0  0  0
  42  3  0   0   0   0  0  0
  43  0 14   0   0   0  0  0
  44  0 14   0   0   0  0  0
  45  3  0   0   0   0  0  0
  46  0 15   0   0   0  0  0
  47  0 15   0   0   0  0  0
  48  3  0   0   0   0  0  0
  49  0 16   0   0   0  0  0
  50  0 16   0   0   0  0  0
  51  3  0   0   0   0  0  0
  52  0 17   0   0   0  0  0
  53  0 17   0   0   0  0  0
  54  3  0   0   0   0  0  0
  55  0 18   0   0   0  0  0
  56  0 18   0   0   0  0  0
  57  3  0   0   0   0  0  0
  58  0 19   0   0   0  0  0
  59  0 19   0   0   0  0  0
  60  3  0   0   0   0  0  0
  61  0 20   0   0   0  0  0
  62  0 20   0   0   0  0  0
  63  3  0   0   0   0  0  0
  64  0 21   0   0   0  0  0
  65  0 21   0   0   0  0  0
  66  3  0   0   0   0  0  0
  67  0 22   0   0   0  0  0
  68  0 22   0   0   0  0  0
  69  3  0   0   0   0  0  0
  70  0 23   0   0   0  0  0
  71  0 23   0   0   0  0  0
  72  3  0   0   0   0  0  0
  73  0 24   0   0   0  0  0
  74  0 24   0   0   0  0  0
  75  3  0   0   0   0  0  0
  76  0 25   0   0   0  0  0
  77  0 25   0   0   0  0  0
  78  3  0   0   0   0  0  0
  79  0 26   0   0   0  0  0
  80  0 26   0   0   0  0  0
  81  3  0   0   0   0  0  0
  82  0 27   0   0   0  0  0
  83  0 27   0   0   0  0  0
  84  3  0   0   0   0  0  0
  85  0 28   0   0   0  0  0
  86  0 28   0   0   0  0  0
  87  3  0   0   0   0  0  0
  88  0 29   0   0   0  0  0
  89  0 29   0   0   0  0  0
  90  3  0   0   0   0  0  0
  91  0 30   0   0   0  0  0
  92  0 30   0   0   0  0  0
  93  3  0   0   0   0  0  0
  94  0 31   0   0   0  0  0
  95  0 31   0   0   0  0  0
  96  3  0   0   0   0  0  0
  97  0 32   0   0   0  0  0
  98  0 32   0   0   0  0  0
  99  3  0   0   0   0  0  0
 100  0 33   0   0   0  0  0
 101  0 33   0   0   0  0  0
 102  3  0   0   0   0  0  0
 103  0 34   0   0   0  0  0
 104  0 34   0   0   0  0  0
 105  3  0   0   0   0  0  0
 106  0 35   0   0   0  0  0
 107  0 35   0   0   0  0  0
 108  3  0   0   0   0  0  0
 109  0 36   0   0   0  0  0
 110  0 36   0   0   0  0  0
 111  3  0   0   0   0  0  0
 112  0 37   0   0   0  0  0
 113  0 37   0   0   0  0  0
 114  3  0   0   0   0  0  0
 115  0 38   0   0   0  0  0
 116  0 38   0   0   0  0  0
 117  3  0   0   0   0  0  0
 118  0 39   0   0   0  0  0
 119  0 39   0   0   0  0  0
 120  3  0   0   0   0  0  0
 121  0 40   0   0   0  0  0
 122  0 40   0   0   0  0  0
 123  0  0   1   1   1  0  0
 124  0  0   0   0   0  1  0
 125  2  0   0   0   0  0  0
 126  0 41   0   0   0  0  0
 127  0 41   0   0   0  0  0
 128  3  0   0   0   0  0  0
 129  0 42   0   0   0  0  0
 130  0 42   0   0   0  0  0
 131  3  0   0   0   0  0  0
 132  0 43   0   0   0  0  0
 133  0 43   0   0   0  0  0
 134  3  0   0   0   0  0  0
 135  0 44   0   0   0  0  0
 136  0 44   0   0   0  0  0
 137  3  0   0   0   0  0  0
 138  0 45   0   0   0  0  0
 139  0 45   0   0   0  0  0
 140  3  0   0   0   0  0  0
 141  0 46   0   0   0  0  0
 142  0 46   0   0   0  0  0
 143  3  0   0   0   0  0  0
 144  0 47   0   0   0  0  0
 145  0 47   0   0   0  0  0
 146  3  0   0   0   0  0  0
 147  0 48   0   0   0  0  0
 148  0 48   0   0   0  0  0
 149  3  0   0   0   0  0  0
 150  0 49   0   0   0  0  0
 151  0 49   0   0   0  0  0
 152  3  0   0   0   0  0  0
 153  0 50   0   0   0  0  0
 154  0 50   0   0   0  0  0
 155  3  0   0   0   0  0  0
 156  0 51   0   0   0  0  0
 157  0 51   0   0   0  0  0
 158  3  0   0   0   0  0  0
 159  0 52   0   0   0  0  0
 160  0 52   0   0   0  0  0
 161  3  0   0   0   0  0  0
 162  0 53   0   0   0  0  0
 163  0 53   0   0   0  0  0
 164  3  0   0   0   0  0  0
 165  0 54   0   0   0  0  0
 166  0 54   0   0   0  0  0
 167  3  0   0   0   0  0  0
 168  0 55   0   0   0  0  0
 169  0 55   0   0   0  0  0
 170  3  0   0   0   0  0  0
 171  0 56   0   0   0  0  0
 172  0 56   0   0   0  0  0
 173  3  0   0   0   0  0  0
 174  0 57   0   0   0  0  0
 175  0 57   0   0   0  0  0
 176  3  0   0   0   0  0  0
 177  0 58   0   0   0  0  0
 178  0 58   0   0   0  0  0
 179  3  0   0   0   0  0  0
 180  0 59   0   0   0  0  0
 181  0 59   0   0   0  0  0
 182  3  0   0   0   0  0  0
 183  0 60   0   0   0  0  0
 184  0 60   0   0   0  0  0
 185  3  0   0   0   0  0  0
 186  0 61   0   0   0  0  0
 187  0 61   0   0   0  0  0
 188  3  0   0   0   0  0  0
 189  0 62   0   0   0  0  0
 190  0 62   0   0   0  0  0
 191  3  0   0   0   0  0  0
 192  0 63   0   0   0  0  0
 193  0 63   0   0   0  0  0
 194  3  0   0   0   0  0  0
 195  0 64   0   0   0  0  0
 196  0 64   0   0   0  0  0
 197  3  0   0   0   0  0  0
 198  0 65   0   0   0  0  0
 199  0 65   0   0   0  0  0
 200  3  0   0   0   0  0  0
 201  0 66   0   0   0  0  0
 202  0 66   0   0   0  0  0
 203  3  0   0   0   0  0  0
 204  0 67   0   0   0  0  0
 205  0 67   0   0   0  0  0
 206  3  0   0   0   0  0  0
 207  0 68   0   0   0  0  0
 208  0 68   0   0   0  0  0
 209  3  0   0   0   0  0  0
 210  0 69   0   0   0  0  0
 211  0 69   0   0   0  0  0
 212  3  0   0   0   0  0  0
 213  0 70   0   0   0  0  0
 214  0 70   0   0   0  0  0
 215  3  0   0   0   0  0  0
 216  0 71   0   0   0  0  0
 217  0 71   0   0   0  0  0
 218  3  0   0   0   0  0  0
 219  0 72   0   0   0  0  0
 220  0 72   0   0   0  0  0
 221  3  0   0   0   0  0  0
 222  0 73   0   0   0  0  0
 223  0 73   0   0   0  0  0
 224  3  0   0   0   0  0  0
 225  0 74   0   0   0  0  0
 226  0 74   0   0   0  0  0
 227  3  0   0   0   0  0  0
 228  0 75   0   0   0  0  0
 229  0 75   0   0   0  0  0
 230  3  0   0   0   0  0  0
 231  0 76   0   0   0  0  0
 232  0 76   0   0   0  0  0
 233  3  0   0   0   0  0  0
 234  0 77   0   0   0  0  0
 235  0 77   0   0   0  0  0
 236  3  0   0   0   0  0  0
 237  0 78   0   0   0  0  0
 238  0 78   0   0   0  0  0
 239  3  0   0   0   0  0  0
 240  0 79   0   0   0  0  0
 241  0 79   0   0   0  0  0
 242  3  0   0   0   0  0  0
 243  0 80   0   0   0  0  0
 244  0 80   0   0   0  0  0
 245  0  0   1   1   1  0  0
 246  0  0   0   0   0  1  0
 247  2  0   0   0   0  0  0
 248  0 81   0   0   0  0  0
 249  0 81   0   0   0  0  0
 250  3  0   0   0   0  0  0
 251  0 82   0   0   0  0  0
 252  0 82   0   0   0  0  0
 253  3  0   0   0   0  0  0
 254  0 83   0   0   0  0  0
 255  0 83   0   0   0  0  0
 256  3  0   0   0   0  0  0
 257  0 84   0   0   0  0  0
 258  0 84   0   0   0  0  0
 259  3  0   0   0   0  0  0
 260  0 85   0   0   0  0  0
 261  0 85   0   0   0  0  0
 262  3  0   0   0   0  0  0
 263  0 86   0   0   0  0  0
 264  0 86   0   0   0  0  0
 265  3  0   0   0   0  0  0
 266  0 87   0   0   0  0  0
 267  0 87   0   0   0  0  0
 268  3  0   0   0   0  0  0
 269  0 88   0   0   0  0  0
 270  0 88   0   0   0  0  0
 271  3  0   0   0   0  0  0
 272  0 89   0   0   0  0  0
 273  0 89   0   0   0  0  0
 274  3  0   0   0   0  0  0
 275  0 90   0   0   0  0  0
 276  0 90   0   0   0  0  0
 277  3  0   0   0   0  0  0
 278  0 91   0   0   0  0  0
 279  0 91   0   0   0  0  0
 280  3  0   0   0   0  0  0
 281  0 92   0   0   0  0  0
 282  0 92   0   0   0  0  0
 283  3  0   0   0   0  0  0
 284  0 93   0   0   0  0  0
 285  0 93   0   0   0  0  0
 286  3  0   0   0   0  0  0
 287  0 94   0   0   0  0  0
 288  0 94   0   0   0  0  0
 289  3  0   0   0   0  0  0
 290  0 95   0   0   0  0  0
 291  0 95   0   0   0  0  0
 292  3  0   0   0   0  0  0
 293  0 96   0   0   0  0  0
 294  0 96   0   0   0  0  0
 295  3  0   0   0   0  0  0
 296  0 97   0   0   0  0  0
 297  0 97   0   0   0  0  0
 298  3  0   0   0   0  0  0
 299  0 98   0   0   0  0  0
 300  0 98   0   0   0  0  0
 301  3  0   0   0   0  0  0
 302  0 99   0   0   0  0  0
 303  0 99   0   0   0  0  0
 304  3  0   0   0   0  0  0
 305  0 100   0   0   0  0  0
 306  0 100   0   0   0  0  0
 307  3  0   0   0   0  0  0
 308  0 101   0   0   0  0  0
 309  0 101   0   0   0  0  0
 310  3  0   0   0   0  0  0
 311  0 102   0   0   0  0  0
 312  0 102   0   0   0  0  0
 313  3  0   0   0   0  0  0
 314  0 103   0   0   0  0  0
 315  0 103   0   0   0  0  0
 316  3  0   0   0   0  0  0
 317  0 104   0   0   0  0  0
 318  0 104   0   0   0  0  0
 319  3  0   0   0   0  0  0
 320  0 105   0   0   0  0  0
 321  0 105   0   0   0  0  0
 322  3  0   0   0   0  0  0
 323  0 106   0   0   0  0  0
 324  0 106   0   0   0  0  0
 325  3  0   0   0   0  0  0
 326  0 107   0   0   0  0  0
 327  0 107   0   0   0  0  0
 328  3  0   0   0   0  0  0
 329  0 108   0   0   0  0  0
 330  0 108   0   0   0  0  0
 331  3  0   0   0   0  0  0
 332  0 109   0   0   0  0  0
[RF]
1      145.354 1 2 100 -510.917 0
2      145.354 1 2 100 -510.917 2.85678
3      145.354 1 2 100 -510.917 5.71356
4      145.354 1 2 100 -510.917 2.28716
5      145.354 1 2 100 -510.917 5.14394
6      145.354 1 2 100 -510.917 1.71754
7      145.354 1 2 100 -510.917 4.57432
8      145.354 1 2 100 -510.917 1.14792
9      145.354 1 2 100 -510.917 4.0047
10      145.354 1 2 100 -510.917 0.578293
11      145.354 1 2 100 -510.917 3.43508
12      145.354 1 2 100 -510.917 0.00867133
13      145.354 1 2 100 -510.917 2.86545
14      145.354 1 2 100 -510.917 5.72223
15      145.354 1 2 100 -510.917 2.29583
16      145.354 1 2 100 -510.917 5.15261
17      145.354 1 2 100 -510.917 1.72621
18      145.354 1 2 100 -510.917 4.58299
19      145.354 1 2 100 -510.917 1.15659
20      145.354 1 2 100 -510.917 4.01337
21      145.354 1 2 100 -510.917 0.586965
22      145.354 1 2 100 -510.917 3.44375
23      145.354 1 2 100 -510.917 0.0173427
24      145.354 1 2 100 -510.917 2.87412
25      145.354 1 2 100 -510.917 5.73091
26      145.354 1 2 100 -510.917 2.3045
27      145.354 1 2 100 -510.917 5.16128
28      145.354 1 2 100 -510.917 1.73488
29      145.354 1 2 100 -510.917 4.59166
30      145.354 1 2 100 -510.917 1.16526
31      145.354 1 2 100 -510.917 4.02204
32      145.354 1 2 100 -510.917 0.595636
33      145.354 1 2 100 -510.917 3.45242
34      145.354 1 2 100 -510.917 0.026014
35      145.354 1 2 100 -510.917 2.8828
36      145.354 1 2 100 -510.917 5.73958
37      145.354 1 2 100 -510.917 2.31317
38      145.354 1 2 100 -510.917 5.16996
39      145.354 1 2 100 -510.917 1.74355
40      145.354 1 2 100 -510.917 4.60033
41      145.354 1 2 100 -478.984 0
42      145.354 1 2 100 -478.984 0.322038
43      145.354 1 2 100 -478.984 0.644077
44      145.354 1 2 100 -478.984 0.966115
45      145.354 1 2 100 -478.984 1.28815
46      145.354 1 2 100 -478.984 1.61019
47      145.354 1 2 100 -478.984 1.93223
48      145.354 1 2 100 -478.984 2.25427
49      145.354 1 2 100 -478.984 2.57631
50      145.354 1 2 100 -478.984 2.89834
51      145.354 1 2 100 -478.984 3.22038
52      145.354 1 2 100 -478.984 3.54242
53      145.354 1 2 100 -478.984 3.86446
54      145.354 1 2 100 -478.984 4.1865
55      145.354 1 2 100 -478.984 4.50854
56      145.354 1 2 100 -478.984 4.83057
57      145.354 1 2 100 -478.984 5.15261
58      145.354 1 2 100 -478.984 5.47465
59      145.354 1 2 100 -478.984 5.79669
60      145.354 1 2 100 -478.984 6.11873
61      145.354 1 2 100 -478.984 0.15758
62      145.354 1 2 100 -478.984 0.479619
63      145.354 1 2 100 -478.984 0.801657
64      145.354 1 2 100 -478.984 1.1237
65      145.354 1 2 100 -478.984 1.44573
66      145.354 1 2 100 -478.984 1.76777
67      145.354 1 2 100 -478.984 2.08981
68      145.354 1 2 100 -478.984 2.41185
69      145.354 1 2 100 -478.984 2.73389
70      145.354 1 2 100 -478.984 3.05592
71      145.354 1 2 100 -478.984 3.37796
72      145.354 1 2 100 -478.984 3.7
73      145.354 1 2 100 -478.984 4.02204
74      145.354 1 2 100 -478.984 4.34408
75      145.354 1 2 100 -478.984 4.66612
76      145.354 1 2 100 -478.984 4.98815
77      145.354 1 2 100 -478.984 5.31019
78      145.354 1 2 100 -478.984 5.63223
79      145.354 1 2 100 -478.984 5.95427
80      145.354 1 2 100 -478.984 6.27631
81      145.354 1 2 100 -447.052 0
82      145.354 1 2 100 -447.052 4.07048
83      145.354 1 2 100 -447.052 1.85778
84      145.354 1 2 100 -447.052 5.92826
85      145.354 1 2 100 -447.052 3.71555
86      145.354 1 2 100 -447.052 1.50285
87      145.354 1 2 100 -447.052 5.57333
88      145.354 1 2 100 -447.052 3.36062
89      145.354 1 2 100 -447.052 1.14792
90      145.354 1 2 100 -447.052 5.2184
91      145.354 1 2 100 -447.052 3.00569
92      145.354 1 2 100 -447.052 0.792986
93      145.354 1 2 100 -447.052 4.86347
94      145.354 1 2 100 -447.052 2.65076
95      145.354 1 2 100 -447.052 0.438056
96      145.354 1 2 100 -447.052 4.50854
97      145.354 1 2 100 -447.052 2.29583
98      145.354 1 2 100 -447.052 0.0831258
99      145.354 1 2 100 -447.052 4.15361
100      145.354 1 2 100 -447.052 1.9409
101      145.354 1 2 100 -447.052 6.01138
102      145.354 1 2 100 -447.052 3.79868
103      145.354 1 2 100 -447.052 1.58597
104      145.354 1 2 100 -447.052 5.65645
105      145.354 1 2 100 -447.052 3.44375
106      145.354 1 2 100 -447.052 1.23104
107      145.354 1 2 100 -447.052 5.30152
108      145.354 1 2 100 -447.052 3.08882
109      145.354 1 2 100 -447.052 0.876111
110      145.354 1 2 100 -447.052 4.94659
111      145.354 1 2 100 -447.052 2.73389
112      145.354 1 2 100 -447.052 0.521182
113      145.354 1 2 100 -447.052 4.59166
114      145.354 1 2 100 -447.052 2.37896
115      145.354 1 2 100 -447.052 0.166252
116      145.354 1 2 100 -447.052 4.23673
117      145.354 1 2 100 -447.052 2.02403
118      145.354 1 2 100 -447.052 6.09451
119      145.354 1 2 100 -447.052 3.8818
120      145.354 1 2 100 -447.052 1.6691
121      145.354 1 2 100 -415.12 0
122      145.354 1 2 100 -415.12 1.53574
123      145.354 1 2 100 -415.12 3.07147
124      145.354 1 2 100 -415.12 4.60721
125      145.354 1 2 100 -415.12 6.14295
126      145.354 1 2 100 -415.12 1.3955
127      145.354 1 2 100 -415.12 2.93124
128      145.354 1 2 100 -415.12 4.46697
129      145.354 1 2 100 -415.12 6.00271
130      145.354 1 2 100 -415.12 1.25526
131      145.354 1 2 100 -415.12 2.791
132      145.354 1 2 100 -415.12 4.32674
133      145.354 1 2 100 -415.12 5.86247
134      145.354 1 2 100 -415.12 1.11502
135      145.354 1 2 100 -415.12 2.65076
136      145.354 1 2 100 -415.12 4.1865
137      145.354 1 2 100 -415.12 5.72223
138      145.354 1 2 100 -415.12 0.974786
139      145.354 1 2 100 -415.12 2.51052
140      145.354 1 2 100 -415.12 4.04626
141      145.354 1 2 100 -415.12 5.582
142      145.354 1 2 100 -415.12 0.834548
143      145.354 1 2 100 -415.12 2.37029
144      145.354 1 2 100 -415.12 3.90602
145      145.354 1 2 100 -415.12 5.44176
146      145.354 1 2 100 -415.12 0.694311
147      145.354 1 2 100 -415.12 2.23005
148      145.354 1 2 100 -415.12 3.76578
149      145.354 1 2 100 -415.12 5.30152
150      145.354 1 2 100 -415.12 0.554073
151      145.354 1 2 100 -415.12 2.08981
152      145.354 1 2 100 -415.12 3.62555
153      145.354 1 2 100 -415.12 5.16128
154      145.354 1 2 100 -415.12 0.413835
155      145.354 1 2 100 -415.12 1.94957
156      145.354 1 2 100 -415.12 3.48531
157      145.354 1 2 100 -415.12 5.02105
158      145.354 1 2 100 -415.12 0.273598
159      145.354 1 2 100 -415.12 1.80933
160      145.354 1 2 100 -415.12 3.34507
161      145.354 1 2 100 -383.188 0
162      145.354 1 2 100 -383.188 5.28418
163      145.354 1 2 100 -383.188 4.28517
164      145.354 1 2 100 -383.188 3.28617
165      145.354 1 2 100 -383.188 2.28716
166      145.354 1 2 100 -383.188 1.28815
167      145.354 1 2 100 -383.188 0.289147
168      145.354 1 2 100 -383.188 5.57333
169      145.354 1 2 100 -383.188 4.57432
170      145.354 1 2 100 -383.188 3.57531
171      145.354 1 2 100 -383.188 2.57631
172      145.354 1 2 100 -383.188 1.5773
173      145.354 1 2 100 -383.188 0.578293
174      145.354 1 2 100 -383.188 5.86247
175      145.354 1 2 100 -383.188 4.86347
176      145.354 1 2 100 -383.188 3.86446
177      145.354 1 2 100 -383.188 2.86545
178      145.354 1 2 100 -383.188 1.86645
179      145.354 1 2 100 -383.188 0.86744
180      145.354 1 2 100 -383.188 6.15162
181      145.354 1 2 100 -383.188 5.15261
182      145.354 1 2 100 -383.188 4.15361
183      145.354 1 2 100 -383.188 3.1546
184      145.354 1 2 100 -383.188 2.15559
185      145.354 1 2 100 -383.188 1.15659
186      145.354 1 2 100 -383.188 0.15758
187      145.354 1 2 100 -383.188 5.44176
188      145.354 1 2 100 -383.188 4.44275
189      145.354 1 2 100 -383.188 3.44375
190      145.354 1 2 100 -383.188 2.44474
191      145.354 1 2 100 -383.188 1.44573
192      145.354 1 2 100 -383.188 0.446727
193      145.354 1 2 100 -383.188 5.73091
194      145.354 1 2 100 -383.188 4.7319
195      145.354 1 2 100 -383.188 3.73289
196      145.354 1 2 100 -383.188 2.73389
197      145.354 1 2 100 -383.188 1.73488
198      145.354 1 2 100 -383.188 0.735874
199      145.354 1 2 100 -383.188 6.02005
200      145.354 1 2 100 -383.188 5.02105
201      145.354 1 2 100 -351.255 0
202      145.354 1 2 100 -351.255 2.74944
203      145.354 1 2 100 -351.255 5.49887
204      145.354 1 2 100 -351.255 1.96512
205      145.354 1 2 100 -351.255 4.71456
206      145.354 1 2 100 -351.255 1.18081
207      145.354 1 2 100 -351.255 3.93024
208      145.354 1 2 100 -351.255 0.396493
209      145.354 1 2 100 -351.255 3.14593
210      145.354 1 2 100 -351.255 5.89536
211      145.354 1 2 100 -351.255 2.36161
212      145.354 1 2 100 -351.255 5.11105
213      145.354 1 2 100 -351.255 1.5773
214      145.354 1 2 100 -351.255 4.32674
215      145.354 1 2 100 -351.255 0.792986
216      145.354 1 2 100 -351.255 3.54242
217      145.354 1 2 100 -351.255 0.00867133
218      145.354 1 2 100 -351.255 2.75811
219      145.354 1 2 100 -351.255 5.50754
220      145.354 1 2 100 -351.255 1.97379
221      145.354 1 2 100 -351.255 4.72323
222      145.354 1 2 100 -351.255 1.18948
223      145.354 1 2 100 -351.255 3.93891
224      145.354 1 2 100 -351.255 0.405164
225      145.354 1 2 100 -351.255 3.1546
226      145.354 1 2 100 -351.255 5.90404
227      145.354 1 2 100 -351.255 2.37029
228      145.354 1 2 100 -351.255 5.11972
229      145.354 1 2 100 -351.255 1.58597
230      145.354 1 2 100 -351.255 4.33541
231      145.354 1 2 100 -351.255 0.801657
232      145.354 1 2 100 -351.255 3.55109
233      145.354 1 2 100 -351.255 0.0173427
234      145.354 1 2 100 -351.255 2.76678
235      145.354 1 2 100 -351.255 5.51621
236      145.354 1 2 100 -351.255 1.98246
237      145.354 1 2 100 -351.255 4.7319
238      145.354 1 2 100 -351.255 1.19815
239      145.354 1 2 100 -351.255 3.94759
240      145.354 1 2 100 -351.255 0.413835
241      145.354 1 2 100 -319.323 0
242      145.354 1 2 100 -319.323 0.214692
243      145.354 1 2 100 -319.323 0.429384
244      145.354 1 2 100 -319.323 0.644077
245      145.354 1 2 100 -319.323 0.858769
246      145.354 1 2 100 -319.323 1.07346
247      145.354 1 2 100 -319.323 1.28815
248      145.354 1 2 100 -319.323 1.50285
249      145.354 1 2 100 -319.323 1.71754
250      145.354 1 2 100 -319.323 1.93223
251      145.354 1 2 100 -319.323 2.14692
252      145.354 1 2 100 -319.323 2.36161
253      145.354 1 2 100 -319.323 2.57631
254      145.354 1 2 100 -319.323 2.791
255      145.354 1 2 100 -319.323 3.00569
256      145.354 1 2 100 -319.323 3.22038
257      145.354 1 2 100 -319.323 3.43508
258      145.354 1 2 100 -319.323 3.64977
259      145.354 1 2 100 -319.323 3.86446
260      145.354 1 2 100 -319.323 4.07915
261      145.354 1 2 100 -319.323 4.29384
262      145.354 1 2 100 -319.323 4.50854
263      145.354 1 2 100 -319.323 4.72323
264      145.354 1 2 100 -319.323 4.93792
265      145.354 1 2 100 -319.323 5.15261
266      145.354 1 2 100 -319.323 5.3673
267      145.354 1 2 100 -319.323 5.582
268      145.354 1 2 100 -319.323 5.79669
269      145.354 1 2 100 -319.323 6.01138
270      145.354 1 2 100 -319.323 6.22607
271      145.354 1 2 100 -319.323 0.15758
272      145.354 1 2 100 -319.323 0.372273
273      145.354 1 2 100 -319.323 0.586965
274      145.354 1 2 100 -319.323 0.801657
275      145.354 1 2 100 -319.323 1.01635
276      145.354 1 2 100 -319.323 1.23104
277      145.354 1 2 100 -319.323 1.44573
278      145.354 1 2 100 -319.323 1.66043
279      145.354 1 2 100 -319.323 1.87512
280      145.354 1 2 100 -319.323 2.08981
281      145.354 1 2 100 -287.391 0
282      145.354 1 2 100 -287.391 3.96313
283      145.354 1 2 100 -287.391 1.64308
284      145.354 1 2 100 -287.391 5.60622
285      145.354 1 2 100 -287.391 3.28617
286      145.354 1 2 100 -287.391 0.966115
287      145.354 1 2 100 -287.391 4.92925
288      145.354 1 2 100 -287.391 2.6092
289      145.354 1 2 100 -287.391 0.289147
290      145.354 1 2 100 -287.391 4.25228
291      145.354 1 2 100 -287.391 1.93223
292      145.354 1 2 100 -287.391 5.89536
293      145.354 1 2 100 -287.391 3.57531
294      145.354 1 2 100 -287.391 1.25526
295      145.354 1 2 100 -287.391 5.2184
296      145.354 1 2 100 -287.391 2.89834
297      145.354 1 2 100 -287.391 0.578293
298      145.354 1 2 100 -287.391 4.54143
299      145.354 1 2 100 -287.391 2.22138
300      145.354 1 2 100 -287.391 6.18451
301      145.354 1 2 100 -287.391 3.86446
302      145.354 1 2 100 -287.391 1.54441
303      145.354 1 2 100 -287.391 5.50754
304      145.354 1 2 100 -287.391 3.18749
305      145.354 1 2 100 -287.391 0.86744
306      145.354 1 2 100 -287.391 4.83057
307      145.354 1 2 100 -287.391 2.51052
308      145.354 1 2 100 -287.391 0.190472
309      145.354 1 2 100 -287.391 4.15361
310      145.354 1 2 100 -287.391 1.83355
311      145.354 1 2 100 -287.391 5.79669
312      145.354 1 2 100 -287.391 3.47664
313      145.354 1 2 100 -287.391 1.15659
314      145.354 1 2 100 -287.391 5.11972
315      145.354 1 2 100 -287.391 2.79967
316      145.354 1 2 100 -287.391 0.479619
317      145.354 1 2 100 -287.391 4.44275
318      145.354 1 2 100 -287.391 2.1227
319      145.354 1 2 100 -287.391 6.08584
320      145.354 1 2 100 -287.391 3.76578
321      145.354 1 2 100 -255.458 0
322      145.354 1 2 100 -255.458 1.42839
323      145.354 1 2 100 -255.458 2.85678
324      145.354 1 2 100 -255.458 4.28517
325      145.354 1 2 100 -255.458 5.71356
326      145.354 1 2 100 -255.458 0.858769
327      145.354 1 2 100 -255.458 2.28716
328      145.354 1 2 100 -255.458 3.71555
329      145.354 1 2 100 -255.458 5.14394
330      145.354 1 2 100 -255.458 0.289147
331      145.354 1 2 100 -255.458 1.71754
332      145.354 1 2 100 -255.458 3.14593
333      145.354 1 2 100 -255.458 4.57432
334      145.354 1 2 100 -255.458 6.00271
335      145.354 1 2 100 -255.458 1.14792
336      145.354 1 2 100 -255.458 2.57631
337      145.354 1 2 100 -255.458 4.0047
338      145.354 1 2 100 -255.458 5.43309
339      145.354 1 2 100 -255.458 0.578293
340      145.354 1 2 100 -255.458 2.00668
341      145.354 1 2 100 -255.458 3.43508
342      145.354 1 2 100 -255.458 4.86347
343      145.354 1 2 100 -255.458 0.00867133
344      145.354 1 2 100 -255.458 1.43706
345      145.354 1 2 100 -255.458 2.86545
346      145.354 1 2 100 -255.458 4.29384
347      145.354 1 2 100 -255.458 5.72223
348      145.354 1 2 100 -255.458 0.86744
349      145.354 1 2 100 -255.458 2.29583
350      145.354 1 2 100 -255.458 3.72422
351      145.354 1 2 100 -255.458 5.15261
352      145.354 1 2 100 -255.458 0.297818
353      145.354 1 2 100 -255.458 1.72621
354      145.354 1 2 100 -255.458 3.1546
355      145.354 1 2 100 -255.458 4.58299
356      145.354 1 2 100 -255.458 6.01138
357      145.354 1 2 100 -255.458 1.15659
358      145.354 1 2 100 -255.458 2.58498
359      145.354 1 2 100 -255.458 4.01337
360      145.354 1 2 100 -255.458 5.44176
361      145.354 1 2 100 -223.526 0
362      145.354 1 2 100 -223.526 5.17683
363      145.354 1 2 100 -223.526 4.07048
364      145.354 1 2 100 -223.526 2.96413
365      145.354 1 2 100 -223.526 1.85778
366      145.354 1 2 100 -223.526 0.751423
367      145.354 1 2 100 -223.526 5.92826
368      145.354 1 2 100 -223.526 4.8219
369      145.354 1 2 100 -223.526 3.71555
370      145.354 1 2 100 -223.526 2.6092
371      145.354 1 2 100 -223.526 1.50285
372      145.354 1 2 100 -223.526 0.396493
373      145.354 1 2 100 -223.526 5.57333
374      145.354 1 2 100 -223.526 4.46697
375      145.354 1 2 100 -223.526 3.36062
376      145.354 1 2 100 -223.526 2.25427
377      145.354 1 2 100 -223.526 1.14792
378      145.354 1 2 100 -223.526 0.0415629
379      145.354 1 2 100 -223.526 5.2184
380      145.354 1 2 100 -223.526 4.11204
381      145.354 1 2 100 -223.526 3.00569
382      145.354 1 2 100 -223.526 1.89934
383      145.354 1 2 100 -223.526 0.792986
384      145.354 1 2 100 -223.526 5.96982
385      145.354 1 2 100 -223.526 4.86347
386      145.354 1 2 100 -223.526 3.75711
387      145.354 1 2 100 -223.526 2.65076
388      145.354 1 2 100 -223.526 1.54441
389      145.354 1 2 100 -223.526 0.438056
390      145.354 1 2 100 -223.526 5.61489
391      145.354 1 2 100 -223.526 4.50854
392      145.354 1 2 100 -223.526 3.40218
393      145.354 1 2 100 -223.526 2.29583
394      145.354 1 2 100 -223.526 1.18948
395      145.354 1 2 100 -223.526 0.0831258
396      145.354 1 2 100 -223.526 5.25996
397      145.354 1 2 100 -223.526 4.15361
398      145.354 1 2 100 -223.526 3.04725
399      145.354 1 2 100 -223.526 1.9409
400      145.354 1 2 100 -223.526 0.834548
401      145.354 1 2 100 -191.594 0
402      145.354 1 2 100 -191.594 2.64209
403      145.354 1 2 100 -191.594 5.28418
404      145.354 1 2 100 -191.594 1.64308
405      145.354 1 2 100 -191.594 4.28517
406      145.354 1 2 100 -191.594 0.644077
407      145.354 1 2 100 -191.594 3.28617
408      145.354 1 2 100 -191.594 5.92826
409      145.354 1 2 100 -191.594 2.28716
410      145.354 1 2 100 -191.594 4.92925
411      145.354 1 2 100 -191.594 1.28815
412      145.354 1 2 100 -191.594 3.93024
413      145.354 1 2 100 -191.594 0.289147
414      145.354 1 2 100 -191.594 2.93124
415      145.354 1 2 100 -191.594 5.57333
416      145.354 1 2 100 -191.594 1.93223
417      145.354 1 2 100 -191.594 4.57432
418      145.354 1 2 100 -191.594 0.933223
419      145.354 1 2 100 -191.594 3.57531
420      145.354 1 2 100 -191.594 6.2174
421      145.354 1 2 100 -191.594 2.57631
422      145.354 1 2 100 -191.594 5.2184
423      145.354 1 2 100 -191.594 1.5773
424      145.354 1 2 100 -191.594 4.21939
425      145.354 1 2 100 -191.594 0.578293
426      145.354 1 2 100 -191.594 3.22038
427      145.354 1 2 100 -191.594 5.86247
428      145.354 1 2 100 -191.594 2.22138
429      145.354 1 2 100 -191.594 4.86347
430      145.354 1 2 100 -191.594 1.22237
431      145.354 1 2 100 -191.594 3.86446
432      145.354 1 2 100 -191.594 0.223364
433      145.354 1 2 100 -191.594 2.86545
434      145.354 1 2 100 -191.594 5.50754
435      145.354 1 2 100 -191.594 1.86645
436      145.354 1 2 100 -191.594 4.50854
437      145.354 1 2 100 -191.594 0.86744
438      145.354 1 2 100 -191.594 3.50953
439      145.354 1 2 100 -191.594 6.15162
440      145.354 1 2 100 -191.594 2.51052
441      145.354 1 2 100 -159.661 0
442      145.354 1 2 100 -159.661 0.107346
443      145.354 1 2 100 -159.661 0.214692
444      145.354 1 2 100 -159.661 0.322038
445      145.354 1 2 100 -159.661 0.429384
446      145.354 1 2 100 -159.661 0.53673
447      145.354 1 2 100 -159.661 0.644077
448      145.354 1 2 100 -159.661 0.751423
449      145.354 1 2 100 -159.661 0.858769
450      145.354 1 2 100 -159.661 0.966115
451      145.354 1 2 100 -159.661 1.07346
452      145.354 1 2 100 -159.661 1.18081
453      145.354 1 2 100 -159.661 1.28815
454      145.354 1 2 100 -159.661 1.3955
455      145.354 1 2 100 -159.661 1.50285
456      145.354 1 2 100 -159.661 1.61019
457      145.354 1 2 100 -159.661 1.71754
458      145.354 1 2 100 -159.661 1.82488
459      145.354 1 2 100 -159.661 1.93223
460      145.354 1 2 100 -159.661 2.03958
461      145.354 1 2 100 -159.661 2.14692
462      145.354 1 2 100 -159.661 2.25427
463      145.354 1 2 100 -159.661 2.36161
464      145.354 1 2 100 -159.661 2.46896
465      145.354 1 2 100 -159.661 2.57631
466      145.354 1 2 100 -159.661 2.68365
467      145.354 1 2 100 -159.661 2.791
468      145.354 1 2 100 -159.661 2.89834
469      145.354 1 2 100 -159.661 3.00569
470      145.354 1 2 100 -159.661 3.11304
471      145.354 1 2 100 -159.661 3.22038
472      145.354 1 2 100 -159.661 3.32773
473      145.354 1 2 100 -159.661 3.43508
474      145.354 1 2 100 -159.661 3.54242
475      145.354 1 2 100 -159.661 3.64977
476      145.354 1 2 100 -159.661 3.75711
477      145.354 1 2 100 -159.661 3.86446
478      145.354 1 2 100 -159.661 3.97181
479      145.354 1 2 100 -159.661 4.07915
480      145.354 1 2 100 -159.661 4.1865
