# Pulseq sequence file
# Created by MATLAB mr toolbox

[VERSION]
major 1
minor 3
revision 0

[DEFINITIONS]
offsets_ppm -10 -9.35484 -8.70968 -8.06452 -7.41935 -6.77419 -6.12903 -5.48387 -4.83871 -4.19355 -3.54839 -2.90323 -2.25806 -1.6129 -0.967742 -0.322581 0.322581 0.967742 1.6129 2.25806 2.90323 3.54839 4.19355 4.83871 5.48387 6.12903 6.77419 7.41935 8.06452 8.70968 9.35484 10 
run_m0_scan 1 

# Format of blocks:
#  #  D RF  GX  GY  GZ ADC EXT
[BLOCKS]
   1  1  0   0   0   0  0  0
   2  0  0   0   0   0  1  0
   3  2  0   0   0   0  0  0
   4  0  1   0   0   0  0  0
   5  3  0   0   0   0  0  0
   6  0  2   0   0   0  0  0
   7  3  0   0   0   0  0  0
   8  0  3   0   0   0  0  0
   9  3  0   0   0   0  0  0
  10  0  4   0   0   0  0  0
  11  3  0   0   0   0  0  0
  12  0  5   0   0   0  0  0
  13  3  0   0   0   0  0  0
  14  0  6   0   0   0  0  0
  15  3  0   0   0   0  0  0
  16  0  7   0   0   0  0  0
  17  3  0   0   0   0  0  0
  18  0  8   0   0   0  0  0
  19  3  0   0   0   0  0  0
  20  0  9   0   0   0  0  0
  21  3  0   0   0   0  0  0
  22  0 10   0   0   0  0  0
  23  3  0   0   0   0  0  0
  24  0 11   0   0   0  0  0
  25  3  0   0   0   0  0  0
  26  0 12   0   0   0  0  0
  27  3  0   0   0   0  0  0
  28  0 13   0   0   0  0  0
  29  3  0   0   0   0  0  0
  30  0 14   0   0   0  0  0
  31  3  0   0   0   0  0  0
  32  0 15   0   0   0  0  0
  33  3  0   0   0   0  0  0
  34  0 16   0   0   0  0  0
  35  3  0   0   0   0  0  0
  36  0 17   0   0   0  0  0
  37  3  0   0   0   0  0  0
  38  0 18   0   0   0  0  0
  39  3  0   0   0   0  0  0
  40  0 19   0   0   0  0  0
  41  3  0   0   0   0  0  0
  42  0 20   0   0   0  0  0
  43  0  0   1   1   1  0  0
  44  0  0   0   0   0  1  0
  45  2  0   0   0   0  0  0
  46  0 21   0   0   0  0  0
  47  3  0   0   0   0  0  0
  48  0 22   0   0   0  0  0
  49  3  0   0   0   0  0  0
  50  0 23   0   0   0  0  0
  51  3  0   0   0   0  0  0
  52  0 24   0   0   0  0  0
  53  3  0   0   0   0  0  0
  54  0 25   0   0   0  0  0
  55  3  0   0   0   0  0  0
  56  0 26   0   0   0  0  0
  57  3  0   0   0   0  0  0
  58  0 27   0   0   0  0  0
  59  3  0   0   0   0  0  0
  60  0 28   0   0   0  0  0
  61  3  0   0   0   0  0  0
  62  0 29   0   0   0  0  0
  63  3  0   0   0   0  0  0
  64  0 30   0   0   0  0  0
  65  3  0   0   0   0  0  0
  66  0 31   0   0   0  0  0
  67  3  0   0   0   0  0  0
  68  0 32   0   0   0  0  0
  69  3  0   0   0   0  0  0
  70  0 33   0   0   0  0  0
  71  3  0   0   0   0  0  0
  72  0 34   0   0   0  0  0
  73  3  0   0   0   0  0  0
  74  0 35   0   0   0  0  0
  75  3  0   0   0   0  0  0
  76  0 36   0   0   0  0  0
  77  3  0   0   0   0  0  0
  78  0 37   0   0   0  0  0
  79  3  0   0   0   0  0  0
  80  0 38   0   0   0  0  0
  81  3  0   0   0   0  0  0
  82  0 39   0   0   0  0  0
  83  3  0   0   0   0  0  0
  84  0 40   0   0   0  0  0
  85  0  0   1   1   1  0  0
  86  0  0   0   0   0  1  0
  87  2  0   0   0   0  0  0
  88  0 41   0   0   0  0  0
  89  3  0   0   0   0  0  0
  90  0 42   0   0   0  0  0
  91  3  0   0   0   0  0  0
  92  0 43   0   0   0  0  0
  93  3  0   0   0   0  0  0
  94  0 44   0   0   0  0  0
  95  3  0   0   0   0  0  0
  96  0 45   0   0   0  0  0
  97  3  0   0   0   0  0  0
  98  0 46   0   0   0  0  0
  99  3  0   0   0   0  0  0
 100  0 47   0   0   0  0  0
 101  3  0   0   0   0  0  0
 102  0 48   0   0   0  0  0
 103  3  0   0   0   0  0  0
 104  0 49   0   0   0  0  0
 105  3  0   0   0   0  0  0
 106  0 50   0   0   0  0  0
 107  3  0   0   0   0  0  0
 108  0 51   0   0   0  0  0
 109  3  0   0   0   0  0  0
 110  0 52   0   0   0  0  0
 111  3  0   0   0   0  0  0
 112  0 53   0   0   0  0  0
 113  3  0   0   0   0  0  0
 114  0 54   0   0   0  0  0
 115  3  0   0   0   0  0  0
 116  0 55   0   0   0  0  0
 117  3  0   0   0   0  0  0
 118  0 56   0   0   0  0  0
 119  3  0   0   0   0  0  0
 120  0 57   0   0   0  0  0
 121  3  0   0   0   0  0  0
 122  0 58   0   0   0  0  0
 123  3  0   0   0   0  0  0
 124  0 59   0   0   0  0  0
 125  3  0   0   0   0  0  0
 126  0 60   0   0   0  0  0
 127  0  0   1   1   1  0  0
 128  0  0   0   0   0  1  0
 129  2  0   0   0   0  0  0
 130  0 61   0   0   0  0  0
 131  3  0   0   0   0  0  0
 132  0 62   0   0   0  0  0
 133  3  0   0   0   0  0  0
 134  0 63   0   0   0  0  0
 135  3  0   0   0   0  0  0
 136  0 64   0   0   0  0  0
 137  3  0   0   0   0  0  0
 138  0 65   0   0   0  0  0
 139  3  0   0   0   0  0  0
 140  0 66   0   0   0  0  0
 141  3  0   0   0   0  0  0
 142  0 67   0   0   0  0  0
 143  3  0   0   0   0  0  0
 144  0 68   0   0   0  0  0
 145  3  0   0   0   0  0  0
 146  0 69   0   0   0  0  0
 147  3  0   0   0   0  0  0
 148  0 70   0   0   0  0  0
 149  3  0   0   0   0  0  0
 150  0 71   0   0   0  0  0
 151  3  0   0   0   0  0  0
 152  0 72   0   0   0  0  0
 153  3  0   0   0   0  0  0
 154  0 73   0   0   0  0  0
 155  3  0   0   0   0  0  0
 156  0 74   0   0   0  0  0
 157  3  0   0   0   0  0  0
 158  0 75   0   0   0  0  0
 159  3  0   0   0   0  0  0
 160  0 76   0   0   0  0  0
 161  3  0   0   0   0  0  0
 162  0 77   0   0   0  0  0
 163  3  0   0   0   0  0  0
 164  0 78   0   0   0  0  0
 165  3  0   0   0   0  0  0
 166  0 79   0   0   0  0  0
 167  3  0   0   0   0  0  0
 168  0 80   0   0   0  0  0
 169  0  0   1   1   1  0  0
 170  0  0   0   0   0  1  0
 171  2  0   0   0   0  0  0
 172  0 81   0   0   0  0  0
 173  3  0   0   0   0  0  0
 174  0 82   0   0   0  0  0
 175  3  0   0   0   0  0  0
 176  0 83   0   0   0  0  0
 177  3  0   0   0   0  0  0
 178  0 84   0   0   0  0  0
 179  3  0   0   0   0  0  0
 180  0 85   0   0   0  0  0
 181  3  0   0   0   0  0  0
 182  0 86   0   0   0  0  0
 183  3  0   0   0   0  0  0
 184  0 87   0   0   0  0  0
 185  3  0   0   0   0  0  0
 186  0 88   0   0   0  0  0
 187  3  0   0   0   0  0  0
 188  0 89   0   0   0  0  0
 189  3  0   0   0   0  0  0
 190  0 90   0   0   0  0  0
 191  3  0   0   0   0  0  0
 192  0 91   0   0   0  0  0
 193  3  0   0   0   0  0  0
 194  0 92   0   0   0  0  0
 195  3  0   0   0   0  0  0
 196  0 93   0   0   0  0  0
 197  3  0   0   0   0  0  0
 198  0 94   0   0   0  0  0
 199  3  0   0   0   0  0  0
 200  0 95   0   0   0  0  0
 201  3  0   0   0   0  0  0
 202  0 96   0   0   0  0  0
 203  3  0   0   0   0  0  0
 204  0 97   0   0   0  0  0
 205  3  0   0   0   0  0  0
 206  0 98   0   0   0  0  0
 207  3  0   0   0   0  0  0
 208  0 99   0   0   0  0  0
 209  3  0   0   0   0  0  0
 210  0 100   0   0   0  0  0
 211  0  0   1   1   1  0  0
 212  0  0   0   0   0  1  0
 213  2  0   0   0   0  0  0
 214  0 101   0   0   0  0  0
 215  3  0   0   0   0  0  0
 216  0 102   0   0   0  0  0
 217  3  0   0   0   0  0  0
 218  0 103   0   0   0  0  0
 219  3  0   0   0   0  0  0
 220  0 104   0   0   0  0  0
 221  3  0   0   0   0  0  0
 222  0 105   0   0   0  0  0
 223  3  0   0   0   0  0  0
 224  0 106   0   0   0  0  0
 225  3  0   0   0   0  0  0
 226  0 107   0   0   0  0  0
 227  3  0   0   0   0  0  0
 228  0 108   0   0   0  0  0
 229  3  0   0   0   0  0  0
 230  0 109   0   0   0  0  0
 231  3  0   0   0   0  0  0
 232  0 110   0   0   0  0  0
 233  3  0   0   0   0  0  0
 234  0 111   0   0   0  0  0
 235  3  0   0   0   0  0  0
 236  0 112   0   0   0  0  0
 237  3  0   0   0   0  0  0
 238  0 113   0   0   0  0  0
 239  3  0   0   0   0  0  0
 240  0 114   0   0   0  0  0
 241  3  0   0   0   0  0  0
 242  0 115   0   0   0  0  0
 243  3  0   0   0   0  0  0
 244  0 116   0   0   0  0  0
 245  3  0   0   0   0  0  0
 246  0 117   0   0   0  0  0
 247  3  0   0   0   0  0  0
 248  0 118   0   0   0  0  0
 249  3  0   0   0   0  0  0
 250  0 119   0   0   0  0  0
 251  3  0   0   0   0  0  0
 252  0 120   0   0   0  0  0
 253  0  0   1   1   1  0  0
 254  0  0   0   0   0  1  0
 255  2  0   0   0   0  0  0
 256  0 121   0   0   0  0  0
 257  3  0   0   0   0  0  0
 258  0 122   0   0   0  0  0
 259  3  0   0   0   0  0  0
 260  0 123   0   0   0  0  0
 261  3  0   0   0   0  0  0
 262  0 124   0   0   0  0  0
 263  3  0   0   0   0  0  0
 264  0 125   0   0   0  0  0
 265  3  0   0   0   0  0  0
 266  0 126   0   0   0  0  0
 267  3  0   0   0   0  0  0
 268  0 127   0   0   0  0  0
 269  3  0   0   0   0  0  0
 270  0 128   0   0   0  0  0
 271  3  0   0   0   0  0  0
 272  0 129   0   0   0  0  0
 273  3  0   0   0   0  0  0
 274  0 130   0   0   0  0  0
 275  3  0   0   0   0  0  0
 276  0 131   0   0   0  0  0
 277  3  0   0   0   0  0  0
 278  0 132   0   0   0  0  0
 279  3  0   0   0   0  0  0
 280  0 133   0   0   0  0  0
 281  3  0   0   0   0  0  0
 282  0 134   0   0   0  0  0
 283  3  0   0   0   0  0  0
 284  0 135   0   0   0  0  0
 285  3  0   0   0   0  0  0
 286  0 136   0   0   0  0  0
 287  3  0   0   0   0  0  0
 288  0 137   0   0   0  0  0
 289  3  0   0   0   0  0  0
 290  0 138   0   0   0  0  0
 291  3  0   0   0   0  0  0
 292  0 139   0   0   0  0  0
 293  3  0   0   0   0  0  0
 294  0 140   0   0   0  0  0
 295  0  0   1   1   1  0  0
 296  0  0   0   0   0  1  0
 297  2  0   0   0   0  0  0
 298  0 141   0   0   0  0  0
 299  3  0   0   0   0  0  0
 300  0 142   0   0   0  0  0
 301  3  0   0   0   0  0  0
 302  0 143   0   0   0  0  0
 303  3  0   0   0   0  0  0
 304  0 144   0   0   0  0  0
 305  3  0   0   0   0  0  0
 306  0 145   0   0   0  0  0
 307  3  0   0   0   0  0  0
 308  0 146   0   0   0  0  0
 309  3  0   0   0   0  0  0
 310  0 147   0   0   0  0  0
 311  3  0   0   0   0  0  0
 312  0 148   0   0   0  0  0
 313  3  0   0   0   0  0  0
 314  0 149   0   0   0  0  0
 315  3  0   0   0   0  0  0
 316  0 150   0   0   0  0  0
 317  3  0   0   0   0  0  0
 318  0 151   0   0   0  0  0
 319  3  0   0   0   0  0  0
 320  0 152   0   0   0  0  0
 321  3  0   0   0   0  0  0
 322  0 153   0   0   0  0  0
 323  3  0   0   0   0  0  0
 324  0 154   0   0   0  0  0
 325  3  0   0   0   0  0  0
 326  0 155   0   0   0  0  0
 327  3  0   0   0   0  0  0
[RF]
1      283.607 1 2 100 -1277.29 0
2      283.607 1 2 100 -1277.29 0.850743
3      283.607 1 2 100 -1277.29 1.70149
4      283.607 1 2 100 -1277.29 2.55223
5      283.607 1 2 100 -1277.29 3.40297
6      283.607 1 2 100 -1277.29 4.25372
7      283.607 1 2 100 -1277.29 5.10446
8      283.607 1 2 100 -1277.29 5.9552
9      283.607 1 2 100 -1277.29 0.522761
10      283.607 1 2 100 -1277.29 1.3735
11      283.607 1 2 100 -1277.29 2.22425
12      283.607 1 2 100 -1277.29 3.07499
13      283.607 1 2 100 -1277.29 3.92573
14      283.607 1 2 100 -1277.29 4.77648
15      283.607 1 2 100 -1277.29 5.62722
16      283.607 1 2 100 -1277.29 0.194779
17      283.607 1 2 100 -1277.29 1.04552
18      283.607 1 2 100 -1277.29 1.89627
19      283.607 1 2 100 -1277.29 2.74701
20      283.607 1 2 100 -1277.29 3.59775
21      283.607 1 2 100 -1194.89 0
22      283.607 1 2 100 -1194.89 1.60659
23      283.607 1 2 100 -1194.89 3.21318
24      283.607 1 2 100 -1194.89 4.81977
25      283.607 1 2 100 -1194.89 0.143176
26      283.607 1 2 100 -1194.89 1.74977
27      283.607 1 2 100 -1194.89 3.35636
28      283.607 1 2 100 -1194.89 4.96295
29      283.607 1 2 100 -1194.89 0.286351
30      283.607 1 2 100 -1194.89 1.89294
31      283.607 1 2 100 -1194.89 3.49953
32      283.607 1 2 100 -1194.89 5.10612
33      283.607 1 2 100 -1194.89 0.429527
34      283.607 1 2 100 -1194.89 2.03612
35      283.607 1 2 100 -1194.89 3.64271
36      283.607 1 2 100 -1194.89 5.2493
37      283.607 1 2 100 -1194.89 0.572702
38      283.607 1 2 100 -1194.89 2.17929
39      283.607 1 2 100 -1194.89 3.78588
40      283.607 1 2 100 -1194.89 5.39247
41      283.607 1 2 100 -1112.48 0
42      283.607 1 2 100 -1112.48 2.36244
43      283.607 1 2 100 -1112.48 4.72487
44      283.607 1 2 100 -1112.48 0.804126
45      283.607 1 2 100 -1112.48 3.16656
46      283.607 1 2 100 -1112.48 5.529
47      283.607 1 2 100 -1112.48 1.60825
48      283.607 1 2 100 -1112.48 3.97069
49      283.607 1 2 100 -1112.48 0.0499412
50      283.607 1 2 100 -1112.48 2.41238
51      283.607 1 2 100 -1112.48 4.77482
52      283.607 1 2 100 -1112.48 0.854067
53      283.607 1 2 100 -1112.48 3.2165
54      283.607 1 2 100 -1112.48 5.57894
55      283.607 1 2 100 -1112.48 1.65819
56      283.607 1 2 100 -1112.48 4.02063
57      283.607 1 2 100 -1112.48 0.0998824
58      283.607 1 2 100 -1112.48 2.46232
59      283.607 1 2 100 -1112.48 4.82476
60      283.607 1 2 100 -1112.48 0.904008
61      283.607 1 2 100 -1030.07 0
62      283.607 1 2 100 -1030.07 3.11828
63      283.607 1 2 100 -1030.07 6.23657
64      283.607 1 2 100 -1030.07 3.07167
65      283.607 1 2 100 -1030.07 6.18995
66      283.607 1 2 100 -1030.07 3.02505
67      283.607 1 2 100 -1030.07 6.14333
68      283.607 1 2 100 -1030.07 2.97843
69      283.607 1 2 100 -1030.07 6.09672
70      283.607 1 2 100 -1030.07 2.93182
71      283.607 1 2 100 -1030.07 6.0501
72      283.607 1 2 100 -1030.07 2.8852
73      283.607 1 2 100 -1030.07 6.00348
74      283.607 1 2 100 -1030.07 2.83858
75      283.607 1 2 100 -1030.07 5.95687
76      283.607 1 2 100 -1030.07 2.79196
77      283.607 1 2 100 -1030.07 5.91025
78      283.607 1 2 100 -1030.07 2.74535
79      283.607 1 2 100 -1030.07 5.86363
80      283.607 1 2 100 -1030.07 2.69873
81      283.607 1 2 100 -947.668 0
82      283.607 1 2 100 -947.668 3.87413
83      283.607 1 2 100 -947.668 1.46508
84      283.607 1 2 100 -947.668 5.33921
85      283.607 1 2 100 -947.668 2.93015
86      283.607 1 2 100 -947.668 0.521099
87      283.607 1 2 100 -947.668 4.39523
88      283.607 1 2 100 -947.668 1.98618
89      283.607 1 2 100 -947.668 5.86031
90      283.607 1 2 100 -947.668 3.45125
91      283.607 1 2 100 -947.668 1.0422
92      283.607 1 2 100 -947.668 4.91633
93      283.607 1 2 100 -947.668 2.50727
94      283.607 1 2 100 -947.668 0.0982204
95      283.607 1 2 100 -947.668 3.97235
96      283.607 1 2 100 -947.668 1.5633
97      283.607 1 2 100 -947.668 5.43743
98      283.607 1 2 100 -947.668 3.02837
99      283.607 1 2 100 -947.668 0.619319
100      283.607 1 2 100 -947.668 4.49345
101      283.607 1 2 100 -865.262 0
102      283.607 1 2 100 -865.262 4.62998
103      283.607 1 2 100 -865.262 2.97677
104      283.607 1 2 100 -865.262 1.32356
105      283.607 1 2 100 -865.262 5.95354
106      283.607 1 2 100 -865.262 4.30033
107      283.607 1 2 100 -865.262 2.64713
108      283.607 1 2 100 -865.262 0.993919
109      283.607 1 2 100 -865.262 5.6239
110      283.607 1 2 100 -865.262 3.97069
111      283.607 1 2 100 -865.262 2.31748
112      283.607 1 2 100 -865.262 0.664275
113      283.607 1 2 100 -865.262 5.29425
114      283.607 1 2 100 -865.262 3.64105
115      283.607 1 2 100 -865.262 1.98784
116      283.607 1 2 100 -865.262 0.33463
117      283.607 1 2 100 -865.262 4.96461
118      283.607 1 2 100 -865.262 3.3114
119      283.607 1 2 100 -865.262 1.65819
120      283.607 1 2 100 -865.262 0.00498601
121      283.607 1 2 100 -782.856 0
122      283.607 1 2 100 -782.856 5.38582
123      283.607 1 2 100 -782.856 4.48846
124      283.607 1 2 100 -782.856 3.5911
125      283.607 1 2 100 -782.856 2.69374
126      283.607 1 2 100 -782.856 1.79638
127      283.607 1 2 100 -782.856 0.899022
128      283.607 1 2 100 -782.856 0.001662
129      283.607 1 2 100 -782.856 5.38749
130      283.607 1 2 100 -782.856 4.49013
131      283.607 1 2 100 -782.856 3.59277
132      283.607 1 2 100 -782.856 2.69541
133      283.607 1 2 100 -782.856 1.79804
134      283.607 1 2 100 -782.856 0.900684
135      283.607 1 2 100 -782.856 0.00332401
136      283.607 1 2 100 -782.856 5.38915
137      283.607 1 2 100 -782.856 4.49179
138      283.607 1 2 100 -782.856 3.59443
139      283.607 1 2 100 -782.856 2.69707
140      283.607 1 2 100 -782.856 1.79971
141      283.607 1 2 100 -700.45 0
142      283.607 1 2 100 -700.45 6.14167
143      283.607 1 2 100 -700.45 6.00016
144      283.607 1 2 100 -700.45 5.85864
145      283.607 1 2 100 -700.45 5.71713
146      283.607 1 2 100 -700.45 5.57562
147      283.607 1 2 100 -700.45 5.4341
148      283.607 1 2 100 -700.45 5.29259
149      283.607 1 2 100 -700.45 5.15108
150      283.607 1 2 100 -700.45 5.00956
151      283.607 1 2 100 -700.45 4.86805
152      283.607 1 2 100 -700.45 4.72654
153      283.607 1 2 100 -700.45 4.58502
154      283.607 1 2 100 -700.45 4.44351
155      283.607 1 2 100 -700.45 4.302
156      283.607 1 2 100 -700.45 4.16048
157      283.607 1 2 100 -700.45 4.01897
158      283.607 1 2 100 -700.45 3.87745
159      283.607 1 2 100 -700.45 3.73594
160      283.607 1 2 100 -700.45 3.59443
161      283.607 1 2 100 -618.045 0
162      283.607 1 2 100 -618.045 0.614333
163      283.607 1 2 100 -618.045 1.22867
164      283.607 1 2 100 -618.045 1.843
165      283.607 1 2 100 -618.045 2.45733
166      283.607 1 2 100 -618.045 3.07167
167      283.607 1 2 100 -618.045 3.686
168      283.607 1 2 100 -618.045 4.30033
169      283.607 1 2 100 -618.045 4.91467
170      283.607 1 2 100 -618.045 5.529
171      283.607 1 2 100 -618.045 6.14333
172      283.607 1 2 100 -618.045 0.474482
173      283.607 1 2 100 -618.045 1.08882
174      283.607 1 2 100 -618.045 1.70315
175      283.607 1 2 100 -618.045 2.31748
176      283.607 1 2 100 -618.045 2.93182
177      283.607 1 2 100 -618.045 3.54615
178      283.607 1 2 100 -618.045 4.16048
179      283.607 1 2 100 -618.045 4.77482
180      283.607 1 2 100 -618.045 5.38915
181      283.607 1 2 100 -535.639 0
182      283.607 1 2 100 -535.639 1.37018
183      283.607 1 2 100 -535.639 2.74036
184      283.607 1 2 100 -535.639 4.11054
185      283.607 1 2 100 -535.639 5.48072
186      283.607 1 2 100 -535.639 0.567716
187      283.607 1 2 100 -535.639 1.9379
188      283.607 1 2 100 -535.639 3.30808
189      283.607 1 2 100 -535.639 4.67826
190      283.607 1 2 100 -535.639 6.04844
191      283.607 1 2 100 -535.639 1.13543
192      283.607 1 2 100 -535.639 2.50561
193      283.607 1 2 100 -535.639 3.87579
194      283.607 1 2 100 -535.639 5.24597
195      283.607 1 2 100 -535.639 0.332968
196      283.607 1 2 100 -535.639 1.70315
197      283.607 1 2 100 -535.639 3.07333
198      283.607 1 2 100 -535.639 4.44351
199      283.607 1 2 100 -535.639 5.81369
200      283.607 1 2 100 -535.639 0.900684
201      283.607 1 2 100 -453.233 0
202      283.607 1 2 100 -453.233 2.12603
203      283.607 1 2 100 -453.233 4.25205
204      283.607 1 2 100 -453.233 0.0948964
205      283.607 1 2 100 -453.233 2.22092
206      283.607 1 2 100 -453.233 4.34695
207      283.607 1 2 100 -453.233 0.189793
208      283.607 1 2 100 -453.233 2.31582
209      283.607 1 2 100 -453.233 4.44185
210      283.607 1 2 100 -453.233 0.284689
211      283.607 1 2 100 -453.233 2.41072
212      283.607 1 2 100 -453.233 4.53674
213      283.607 1 2 100 -453.233 0.379585
214      283.607 1 2 100 -453.233 2.50561
215      283.607 1 2 100 -453.233 4.63164
216      283.607 1 2 100 -453.233 0.474482
217      283.607 1 2 100 -453.233 2.60051
218      283.607 1 2 100 -453.233 4.72654
219      283.607 1 2 100 -453.233 0.569378
220      283.607 1 2 100 -453.233 2.69541
221      283.607 1 2 100 -370.827 0
222      283.607 1 2 100 -370.827 2.88187
223      283.607 1 2 100 -370.827 5.76375
224      283.607 1 2 100 -370.827 2.36244
225      283.607 1 2 100 -370.827 5.24431
226      283.607 1 2 100 -370.827 1.843
227      283.607 1 2 100 -370.827 4.72487
228      283.607 1 2 100 -370.827 1.32356
229      283.607 1 2 100 -370.827 4.20544
230      283.607 1 2 100 -370.827 0.804126
231      283.607 1 2 100 -370.827 3.686
232      283.607 1 2 100 -370.827 0.284689
233      283.607 1 2 100 -370.827 3.16656
234      283.607 1 2 100 -370.827 6.04844
235      283.607 1 2 100 -370.827 2.64713
236      283.607 1 2 100 -370.827 5.529
237      283.607 1 2 100 -370.827 2.12769
238      283.607 1 2 100 -370.827 5.00956
239      283.607 1 2 100 -370.827 1.60825
240      283.607 1 2 100 -370.827 4.49013
241      283.607 1 2 100 -288.421 0
242      283.607 1 2 100 -288.421 3.63772
243      283.607 1 2 100 -288.421 0.992257
244      283.607 1 2 100 -288.421 4.62998
245      283.607 1 2 100 -288.421 1.98451
246      283.607 1 2 100 -288.421 5.62223
247      283.607 1 2 100 -288.421 2.97677
248      283.607 1 2 100 -288.421 0.331306
249      283.607 1 2 100 -288.421 3.96903
250      283.607 1 2 100 -288.421 1.32356
251      283.607 1 2 100 -288.421 4.96128
252      283.607 1 2 100 -288.421 2.31582
253      283.607 1 2 100 -288.421 5.95354
254      283.607 1 2 100 -288.421 3.30808
255      283.607 1 2 100 -288.421 0.662613
256      283.607 1 2 100 -288.421 4.30033
257      283.607 1 2 100 -288.421 1.65487
258      283.607 1 2 100 -288.421 5.29259
259      283.607 1 2 100 -288.421 2.64713
260      283.607 1 2 100 -288.421 0.001662
261      283.607 1 2 100 -206.015 0
262      283.607 1 2 100 -206.015 4.39357
263      283.607 1 2 100 -206.015 2.50395
264      283.607 1 2 100 -206.015 0.614333
265      283.607 1 2 100 -206.015 5.0079
266      283.607 1 2 100 -206.015 3.11828
267      283.607 1 2 100 -206.015 1.22867
268      283.607 1 2 100 -206.015 5.62223
269      283.607 1 2 100 -206.015 3.73262
270      283.607 1 2 100 -206.015 1.843
271      283.607 1 2 100 -206.015 6.23657
272      283.607 1 2 100 -206.015 4.34695
273      283.607 1 2 100 -206.015 2.45733
274      283.607 1 2 100 -206.015 0.567716
275      283.607 1 2 100 -206.015 4.96128
276      283.607 1 2 100 -206.015 3.07167
277      283.607 1 2 100 -206.015 1.18205
278      283.607 1 2 100 -206.015 5.57562
279      283.607 1 2 100 -206.015 3.686
280      283.607 1 2 100 -206.015 1.79638
281      283.607 1 2 100 -123.609 0
282      283.607 1 2 100 -123.609 5.14941
283      283.607 1 2 100 -123.609 4.01564
284      283.607 1 2 100 -123.609 2.88187
285      283.607 1 2 100 -123.609 1.7481
286      283.607 1 2 100 -123.609 0.614333
287      283.607 1 2 100 -123.609 5.76375
288      283.607 1 2 100 -123.609 4.62998
289      283.607 1 2 100 -123.609 3.49621
290      283.607 1 2 100 -123.609 2.36244
291      283.607 1 2 100 -123.609 1.22867
292      283.607 1 2 100 -123.609 0.0948964
293      283.607 1 2 100 -123.609 5.24431
294      283.607 1 2 100 -123.609 4.11054
295      283.607 1 2 100 -123.609 2.97677
296      283.607 1 2 100 -123.609 1.843
297      283.607 1 2 100 -123.609 0.70923
298      283.607 1 2 100 -123.609 5.85864
299      283.607 1 2 100 -123.609 4.72487
300      283.607 1 2 100 -123.609 3.5911
301      283.607 1 2 100 -41.203 0
302      283.607 1 2 100 -41.203 5.90526
303      283.607 1 2 100 -41.203 5.52734
304      283.607 1 2 100 -41.203 5.14941
305      283.607 1 2 100 -41.203 4.77149
306      283.607 1 2 100 -41.203 4.39357
307      283.607 1 2 100 -41.203 4.01564
308      283.607 1 2 100 -41.203 3.63772
309      283.607 1 2 100 -41.203 3.2598
310      283.607 1 2 100 -41.203 2.88187
311      283.607 1 2 100 -41.203 2.50395
312      283.607 1 2 100 -41.203 2.12603
313      283.607 1 2 100 -41.203 1.7481
314      283.607 1 2 100 -41.203 1.37018
315      283.607 1 2 100 -41.203 0.992257
316      283.607 1 2 100 -41.203 0.614333
317      283.607 1 2 100 -41.203 0.23641
318      283.607 1 2 100 -41.203 6.14167
319      283.607 1 2 100 -41.203 5.76375
320      283.607 1 2 100 -41.203 5.38582
321      283.607 1 2 100 41.203 0
322      283.607 1 2 100 41.203 0.377923
323      283.607 1 2 100 41.203 0.755847
324      283.607 1 2 100 41.203 1.13377
325      283.607 1 2 100 41.203 1.51169
326      283.607 1 2 100 41.203 1.88962
327      283.607 1 2 100 41.203 2.26754
328      283.607 1 2 100 41.203 2.64546
329      283.607 1 2 100 41.203 3.02339
330      283.607 1 2 100 41.203 3.40131
331      283.607 1 2 100 41.203 3.77923
332      283.607 1 2 100 41.203 4.15716
333      283.607 1 2 100 41.203 4.53508
334      283.607 1 2 100 41.203 4.91301
335      283.607 1 2 100 41.203 5.29093
336      283.607 1 2 100 41.203 5.66885
337      283.607 1 2 100 41.203 6.04678
338      283.607 1 2 100 41.203 0.141514
339      283.607 1 2 100 41.203 0.519437
340      283.607 1 2 100 41.203 0.89736
341      283.607 1 2 100 123.609 0
342      283.607 1 2 100 123.609 1.13377
343      283.607 1 2 100 123.609 2.26754
344      283.607 1 2 100 123.609 3.40131
345      283.607 1 2 100 123.609 4.53508
346      283.607 1 2 100 123.609 5.66885
347      283.607 1 2 100 123.609 0.519437
348      283.607 1 2 100 123.609 1.65321
349      283.607 1 2 100 123.609 2.78698
350      283.607 1 2 100 123.609 3.92075
351      283.607 1 2 100 123.609 5.05452
352      283.607 1 2 100 123.609 6.18829
353      283.607 1 2 100 123.609 1.03887
354      283.607 1 2 100 123.609 2.17264
355      283.607 1 2 100 123.609 3.30641
356      283.607 1 2 100 123.609 4.44019
357      283.607 1 2 100 123.609 5.57396
358      283.607 1 2 100 123.609 0.424541
359      283.607 1 2 100 123.609 1.55831
360      283.607 1 2 100 123.609 2.69208
361      283.607 1 2 100 206.015 0
362      283.607 1 2 100 206.015 1.88962
363      283.607 1 2 100 206.015 3.77923
364      283.607 1 2 100 206.015 5.66885
365      283.607 1 2 100 206.015 1.27528
366      283.607 1 2 100 206.015 3.1649
367      283.607 1 2 100 206.015 5.05452
368      283.607 1 2 100 206.015 0.660951
369      283.607 1 2 100 206.015 2.55057
370      283.607 1 2 100 206.015 4.44019
371      283.607 1 2 100 206.015 0.0466172
372      283.607 1 2 100 206.015 1.93623
373      283.607 1 2 100 206.015 3.82585
374      283.607 1 2 100 206.015 5.71547
375      283.607 1 2 100 206.015 1.3219
376      283.607 1 2 100 206.015 3.21152
377      283.607 1 2 100 206.015 5.10114
378      283.607 1 2 100 206.015 0.707568
379      283.607 1 2 100 206.015 2.59719
380      283.607 1 2 100 206.015 4.4868
381      283.607 1 2 100 288.421 0
382      283.607 1 2 100 288.421 2.64546
383      283.607 1 2 100 288.421 5.29093
384      283.607 1 2 100 288.421 1.65321
385      283.607 1 2 100 288.421 4.29867
386      283.607 1 2 100 288.421 0.660951
387      283.607 1 2 100 288.421 3.30641
388      283.607 1 2 100 288.421 5.95188
389      283.607 1 2 100 288.421 2.31416
390      283.607 1 2 100 288.421 4.95962
391      283.607 1 2 100 288.421 1.3219
392      283.607 1 2 100 288.421 3.96737
393      283.607 1 2 100 288.421 0.329644
394      283.607 1 2 100 288.421 2.97511
395      283.607 1 2 100 288.421 5.62057
396      283.607 1 2 100 288.421 1.98285
397      283.607 1 2 100 288.421 4.62832
398      283.607 1 2 100 288.421 0.990595
399      283.607 1 2 100 288.421 3.63606
400      283.607 1 2 100 288.421 6.28152
401      283.607 1 2 100 370.827 0
402      283.607 1 2 100 370.827 3.40131
403      283.607 1 2 100 370.827 0.519437
404      283.607 1 2 100 370.827 3.92075
405      283.607 1 2 100 370.827 1.03887
406      283.607 1 2 100 370.827 4.44019
407      283.607 1 2 100 370.827 1.55831
408      283.607 1 2 100 370.827 4.95962
409      283.607 1 2 100 370.827 2.07775
410      283.607 1 2 100 370.827 5.47906
411      283.607 1 2 100 370.827 2.59719
412      283.607 1 2 100 370.827 5.9985
413      283.607 1 2 100 370.827 3.11662
414      283.607 1 2 100 370.827 0.234748
415      283.607 1 2 100 370.827 3.63606
416      283.607 1 2 100 370.827 0.754185
417      283.607 1 2 100 370.827 4.1555
418      283.607 1 2 100 370.827 1.27362
419      283.607 1 2 100 370.827 4.67493
420      283.607 1 2 100 370.827 1.79306
421      283.607 1 2 100 453.233 0
422      283.607 1 2 100 453.233 4.15716
423      283.607 1 2 100 453.233 2.03113
424      283.607 1 2 100 453.233 6.18829
425      283.607 1 2 100 453.233 4.06226
426      283.607 1 2 100 453.233 1.93623
427      283.607 1 2 100 453.233 6.09339
428      283.607 1 2 100 453.233 3.96737
429      283.607 1 2 100 453.233 1.84134
430      283.607 1 2 100 453.233 5.9985
431      283.607 1 2 100 453.233 3.87247
432      283.607 1 2 100 453.233 1.74644
433      283.607 1 2 100 453.233 5.9036
434      283.607 1 2 100 453.233 3.77757
435      283.607 1 2 100 453.233 1.65155
436      283.607 1 2 100 453.233 5.8087
437      283.607 1 2 100 453.233 3.68268
438      283.607 1 2 100 453.233 1.55665
439      283.607 1 2 100 453.233 5.71381
440      283.607 1 2 100 453.233 3.58778
441      283.607 1 2 100 535.639 0
442      283.607 1 2 100 535.639 4.91301
443      283.607 1 2 100 535.639 3.54282
444      283.607 1 2 100 535.639 2.17264
445      283.607 1 2 100 535.639 0.802464
446      283.607 1 2 100 535.639 5.71547
447      283.607 1 2 100 535.639 4.34529
448      283.607 1 2 100 535.639 2.97511
449      283.607 1 2 100 535.639 1.60493
450      283.607 1 2 100 535.639 0.234748
451      283.607 1 2 100 535.639 5.14775
452      283.607 1 2 100 535.639 3.77757
453      283.607 1 2 100 535.639 2.40739
454      283.607 1 2 100 535.639 1.03721
455      283.607 1 2 100 535.639 5.95022
456      283.607 1 2 100 535.639 4.58004
457      283.607 1 2 100 535.639 3.20986
458      283.607 1 2 100 535.639 1.83968
459      283.607 1 2 100 535.639 0.469496
460      283.607 1 2 100 535.639 5.3825
461      283.607 1 2 100 618.045 0
462      283.607 1 2 100 618.045 5.66885
463      283.607 1 2 100 618.045 5.05452
464      283.607 1 2 100 618.045 4.44019
465      283.607 1 2 100 618.045 3.82585
466      283.607 1 2 100 618.045 3.21152
467      283.607 1 2 100 618.045 2.59719
468      283.607 1 2 100 618.045 1.98285
469      283.607 1 2 100 618.045 1.36852
470      283.607 1 2 100 618.045 0.754185
471      283.607 1 2 100 618.045 0.139852
472      283.607 1 2 100 618.045 5.8087
473      283.607 1 2 100 618.045 5.19437
474      283.607 1 2 100 618.045 4.58004
475      283.607 1 2 100 618.045 3.9657
476      283.607 1 2 100 618.045 3.35137
477      283.607 1 2 100 618.045 2.73704
478      283.607 1 2 100 618.045 2.1227
479      283.607 1 2 100 618.045 1.50837
480      283.607 1 2 100 618.045 0.894036
481      283.607 1 2 100 700.45 0
482      283.607 1 2 100 700.45 0.141514
483      283.607 1 2 100 700.45 0.283027
484      283.607 1 2 100 700.45 0.424541
485      283.607 1 2 100 700.45 0.566054
486      283.607 1 2 100 700.45 0.707568
487      283.607 1 2 100 700.45 0.849081
