# Pulseq sequence file
# Created by MATLAB mr toolbox

[VERSION]
major 1
minor 3
revision 0

[DEFINITIONS]
offsets_ppm -1560 -6 -5.5 -5 -4.5 -4 -3.5 -3 -2.5 -2 -1.5 -1 -0.5 0 0.5 1 1.5 2 2.5 3 3.5 4 4.5 5 5.5 6 
run_m0_scan 0 

# Format of blocks:
#  #  D RF  GX  GY  GZ ADC EXT
[BLOCKS]
   1  1  0   0   0   0  0  0
   2  0  1   0   0   0  0  0
   3  2  0   0   0   0  0  0
   4  0  2   0   0   0  0  0
   5  2  0   0   0   0  0  0
   6  0  3   0   0   0  0  0
   7  2  0   0   0   0  0  0
   8  0  4   0   0   0  0  0
   9  2  0   0   0   0  0  0
  10  0  5   0   0   0  0  0
  11  2  0   0   0   0  0  0
  12  0  6   0   0   0  0  0
  13  2  0   0   0   0  0  0
  14  0  7   0   0   0  0  0
  15  2  0   0   0   0  0  0
  16  0  8   0   0   0  0  0
  17  2  0   0   0   0  0  0
  18  0  9   0   0   0  0  0
  19  2  0   0   0   0  0  0
  20  0 10   0   0   0  0  0
  21  2  0   0   0   0  0  0
  22  0 11   0   0   0  0  0
  23  2  0   0   0   0  0  0
  24  0 12   0   0   0  0  0
  25  2  0   0   0   0  0  0
  26  0 13   0   0   0  0  0
  27  2  0   0   0   0  0  0
  28  0 14   0   0   0  0  0
  29  2  0   0   0   0  0  0
  30  0 15   0   0   0  0  0
  31  2  0   0   0   0  0  0
  32  0 16   0   0   0  0  0
  33  2  0   0   0   0  0  0
  34  0 17   0   0   0  0  0
  35  2  0   0   0   0  0  0
  36  0 18   0   0   0  0  0
  37  2  0   0   0   0  0  0
  38  0 19   0   0   0  0  0
  39  2  0   0   0   0  0  0
  40  0 20   0   0   0  0  0
  41  2  0   0   0   0  0  0
  42  0 21   0   0   0  0  0
  43  2  0   0   0   0  0  0
  44  0 22   0   0   0  0  0
  45  2  0   0   0   0  0  0
  46  0 23   0   0   0  0  0
  47  2  0   0   0   0  0  0
  48  0 24   0   0   0  0  0
  49  2  0   0   0   0  0  0
  50  0 25   0   0   0  0  0
  51  2  0   0   0   0  0  0
  52  0 26   0   0   0  0  0
  53  2  0   0   0   0  0  0
  54  0 27   0   0   0  0  0
  55  2  0   0   0   0  0  0
  56  0 28   0   0   0  0  0
  57  2  0   0   0   0  0  0
  58  0 29   0   0   0  0  0
  59  2  0   0   0   0  0  0
  60  0 30   0   0   0  0  0
  61  2  0   0   0   0  0  0
  62  0 31   0   0   0  0  0
  63  2  0   0   0   0  0  0
  64  0 32   0   0   0  0  0
  65  2  0   0   0   0  0  0
  66  0 33   0   0   0  0  0
  67  2  0   0   0   0  0  0
  68  0 34   0   0   0  0  0
  69  2  0   0   0   0  0  0
  70  0 35   0   0   0  0  0
  71  2  0   0   0   0  0  0
  72  0 36   0   0   0  0  0
  73  2  0   0   0   0  0  0
  74  0 37   0   0   0  0  0
  75  2  0   0   0   0  0  0
  76  0 38   0   0   0  0  0
  77  2  0   0   0   0  0  0
  78  0 39   0   0   0  0  0
  79  2  0   0   0   0  0  0
  80  0 40   0   0   0  0  0
  81  0  0   1   1   1  0  0
  82  0  0   0   0   0  1  0
  83  1  0   0   0   0  0  0
  84  0 41   0   0   0  0  0
  85  2  0   0   0   0  0  0
  86  0 42   0   0   0  0  0
  87  2  0   0   0   0  0  0
  88  0 43   0   0   0  0  0
  89  2  0   0   0   0  0  0
  90  0 44   0   0   0  0  0
  91  2  0   0   0   0  0  0
  92  0 45   0   0   0  0  0
  93  2  0   0   0   0  0  0
  94  0 46   0   0   0  0  0
  95  2  0   0   0   0  0  0
  96  0 47   0   0   0  0  0
  97  2  0   0   0   0  0  0
  98  0 48   0   0   0  0  0
  99  2  0   0   0   0  0  0
 100  0 49   0   0   0  0  0
 101  2  0   0   0   0  0  0
 102  0 50   0   0   0  0  0
 103  2  0   0   0   0  0  0
 104  0 51   0   0   0  0  0
 105  2  0   0   0   0  0  0
 106  0 52   0   0   0  0  0
 107  2  0   0   0   0  0  0
 108  0 53   0   0   0  0  0
 109  2  0   0   0   0  0  0
 110  0 54   0   0   0  0  0
 111  2  0   0   0   0  0  0
 112  0 55   0   0   0  0  0
 113  2  0   0   0   0  0  0
 114  0 56   0   0   0  0  0
 115  2  0   0   0   0  0  0
 116  0 57   0   0   0  0  0
 117  2  0   0   0   0  0  0
 118  0 58   0   0   0  0  0
 119  2  0   0   0   0  0  0
 120  0 59   0   0   0  0  0
 121  2  0   0   0   0  0  0
 122  0 60   0   0   0  0  0
 123  2  0   0   0   0  0  0
 124  0 61   0   0   0  0  0
 125  2  0   0   0   0  0  0
 126  0 62   0   0   0  0  0
 127  2  0   0   0   0  0  0
 128  0 63   0   0   0  0  0
 129  2  0   0   0   0  0  0
 130  0 64   0   0   0  0  0
 131  2  0   0   0   0  0  0
 132  0 65   0   0   0  0  0
 133  2  0   0   0   0  0  0
 134  0 66   0   0   0  0  0
 135  2  0   0   0   0  0  0
 136  0 67   0   0   0  0  0
 137  2  0   0   0   0  0  0
 138  0 68   0   0   0  0  0
 139  2  0   0   0   0  0  0
 140  0 69   0   0   0  0  0
 141  2  0   0   0   0  0  0
 142  0 70   0   0   0  0  0
 143  2  0   0   0   0  0  0
 144  0 71   0   0   0  0  0
 145  2  0   0   0   0  0  0
 146  0 72   0   0   0  0  0
 147  2  0   0   0   0  0  0
 148  0 73   0   0   0  0  0
 149  2  0   0   0   0  0  0
 150  0 74   0   0   0  0  0
 151  2  0   0   0   0  0  0
 152  0 75   0   0   0  0  0
 153  2  0   0   0   0  0  0
 154  0 76   0   0   0  0  0
 155  2  0   0   0   0  0  0
 156  0 77   0   0   0  0  0
 157  2  0   0   0   0  0  0
 158  0 78   0   0   0  0  0
 159  2  0   0   0   0  0  0
 160  0 79   0   0   0  0  0
 161  2  0   0   0   0  0  0
 162  0 80   0   0   0  0  0
 163  0  0   1   1   1  0  0
 164  0  0   0   0   0  1  0
 165  1  0   0   0   0  0  0
 166  0 81   0   0   0  0  0
 167  2  0   0   0   0  0  0
 168  0 82   0   0   0  0  0
 169  2  0   0   0   0  0  0
 170  0 83   0   0   0  0  0
 171  2  0   0   0   0  0  0
 172  0 84   0   0   0  0  0
 173  2  0   0   0   0  0  0
 174  0 85   0   0   0  0  0
 175  2  0   0   0   0  0  0
 176  0 86   0   0   0  0  0
 177  2  0   0   0   0  0  0
 178  0 87   0   0   0  0  0
 179  2  0   0   0   0  0  0
 180  0 88   0   0   0  0  0
 181  2  0   0   0   0  0  0
 182  0 89   0   0   0  0  0
 183  2  0   0   0   0  0  0
 184  0 90   0   0   0  0  0
 185  2  0   0   0   0  0  0
 186  0 91   0   0   0  0  0
 187  2  0   0   0   0  0  0
 188  0 92   0   0   0  0  0
 189  2  0   0   0   0  0  0
 190  0 93   0   0   0  0  0
 191  2  0   0   0   0  0  0
 192  0 94   0   0   0  0  0
 193  2  0   0   0   0  0  0
 194  0 95   0   0   0  0  0
 195  2  0   0   0   0  0  0
 196  0 96   0   0   0  0  0
 197  2  0   0   0   0  0  0
 198  0 97   0   0   0  0  0
 199  2  0   0   0   0  0  0
 200  0 98   0   0   0  0  0
 201  2  0   0   0   0  0  0
 202  0 99   0   0   0  0  0
 203  2  0   0   0   0  0  0
 204  0 100   0   0   0  0  0
 205  2  0   0   0   0  0  0
 206  0 101   0   0   0  0  0
 207  2  0   0   0   0  0  0
 208  0 102   0   0   0  0  0
 209  2  0   0   0   0  0  0
 210  0 103   0   0   0  0  0
 211  2  0   0   0   0  0  0
 212  0 104   0   0   0  0  0
 213  2  0   0   0   0  0  0
 214  0 105   0   0   0  0  0
 215  2  0   0   0   0  0  0
 216  0 106   0   0   0  0  0
 217  2  0   0   0   0  0  0
 218  0 107   0   0   0  0  0
 219  2  0   0   0   0  0  0
 220  0 108   0   0   0  0  0
 221  2  0   0   0   0  0  0
 222  0 109   0   0   0  0  0
 223  2  0   0   0   0  0  0
 224  0 110   0   0   0  0  0
 225  2  0   0   0   0  0  0
 226  0 111   0   0   0  0  0
 227  2  0   0   0   0  0  0
 228  0 112   0   0   0  0  0
 229  2  0   0   0   0  0  0
 230  0 113   0   0   0  0  0
 231  2  0   0   0   0  0  0
 232  0 114   0   0   0  0  0
 233  2  0   0   0   0  0  0
 234  0 115   0   0   0  0  0
 235  2  0   0   0   0  0  0
 236  0 116   0   0   0  0  0
 237  2  0   0   0   0  0  0
 238  0 117   0   0   0  0  0
 239  2  0   0   0   0  0  0
 240  0 118   0   0   0  0  0
 241  2  0   0   0   0  0  0
 242  0 119   0   0   0  0  0
 243  2  0   0   0   0  0  0
 244  0 120   0   0   0  0  0
 245  0  0   1   1   1  0  0
 246  0  0   0   0   0  1  0
 247  1  0   0   0   0  0  0
 248  0 121   0   0   0  0  0
 249  2  0   0   0   0  0  0
 250  0 122   0   0   0  0  0
 251  2  0   0   0   0  0  0
 252  0 123   0   0   0  0  0
 253  2  0   0   0   0  0  0
 254  0 124   0   0   0  0  0
 255  2  0   0   0   0  0  0
 256  0 125   0   0   0  0  0
 257  2  0   0   0   0  0  0
 258  0 126   0   0   0  0  0
 259  2  0   0   0   0  0  0
 260  0 127   0   0   0  0  0
 261  2  0   0   0   0  0  0
 262  0 128   0   0   0  0  0
 263  2  0   0   0   0  0  0
 264  0 129   0   0   0  0  0
 265  2  0   0   0   0  0  0
 266  0 130   0   0   0  0  0
 267  2  0   0   0   0  0  0
 268  0 131   0   0   0  0  0
 269  2  0   0   0   0  0  0
 270  0 132   0   0   0  0  0
 271  2  0   0   0   0  0  0
 272  0 133   0   0   0  0  0
 273  2  0   0   0   0  0  0
 274  0 134   0   0   0  0  0
 275  2  0   0   0   0  0  0
 276  0 135   0   0   0  0  0
 277  2  0   0   0   0  0  0
 278  0 136   0   0   0  0  0
 279  2  0   0   0   0  0  0
 280  0 137   0   0   0  0  0
 281  2  0   0   0   0  0  0
 282  0 138   0   0   0  0  0
 283  2  0   0   0   0  0  0
 284  0 139   0   0   0  0  0
 285  2  0   0   0   0  0  0
 286  0 140   0   0   0  0  0
 287  2  0   0   0   0  0  0
 288  0 141   0   0   0  0  0
 289  2  0   0   0   0  0  0
 290  0 142   0   0   0  0  0
 291  2  0   0   0   0  0  0
 292  0 143   0   0   0  0  0
 293  2  0   0   0   0  0  0
 294  0 144   0   0   0  0  0
 295  2  0   0   0   0  0  0
 296  0 145   0   0   0  0  0
 297  2  0   0   0   0  0  0
 298  0 146   0   0   0  0  0
 299  2  0   0   0   0  0  0
 300  0 147   0   0   0  0  0
 301  2  0   0   0   0  0  0
 302  0 148   0   0   0  0  0
 303  2  0   0   0   0  0  0
 304  0 149   0   0   0  0  0
 305  2  0   0   0   0  0  0
 306  0 150   0   0   0  0  0
 307  2  0   0   0   0  0  0
 308  0 151   0   0   0  0  0
 309  2  0   0   0   0  0  0
 310  0 152   0   0   0  0  0
 311  2  0   0   0   0  0  0
 312  0 153   0   0   0  0  0
 313  2  0   0   0   0  0  0
 314  0 154   0   0   0  0  0
 315  2  0   0   0   0  0  0
 316  0 155   0   0   0  0  0
 317  2  0   0   0   0  0  0
 318  0 156   0   0   0  0  0
 319  2  0   0   0   0  0  0
 320  0 157   0   0   0  0  0
 321  2  0   0   0   0  0  0
 322  0 158   0   0   0  0  0
 323  2  0   0   0   0  0  0
 324  0 159   0   0   0  0  0
 325  2  0   0   0   0  0  0
 326  0 160   0   0   0  0  0
 327  0  0   1   1   1  0  0
 328  0  0   0   0   0  1  0
 329  1  0   0   0   0  0  0
 330  0 161   0   0   0  0  0
 331  2  0   0   0   0  0  0
 332  0 162   0   0   0  0  0
[RF]
1      255.502 1 2 100 -199258 0
2      255.502 1 2 100 -199258 0.769062
3      255.502 1 2 100 -199258 1.53812
4      255.502 1 2 100 -199258 2.30719
5      255.502 1 2 100 -199258 3.07625
6      255.502 1 2 100 -199258 3.84531
7      255.502 1 2 100 -199258 4.61437
8      255.502 1 2 100 -199258 5.38343
9      255.502 1 2 100 -199258 6.1525
10      255.502 1 2 100 -199258 0.638372
11      255.502 1 2 100 -199258 1.40743
12      255.502 1 2 100 -199258 2.1765
13      255.502 1 2 100 -199258 2.94556
14      255.502 1 2 100 -199258 3.71462
15      255.502 1 2 100 -199258 4.48368
16      255.502 1 2 100 -199258 5.25274
17      255.502 1 2 100 -199258 6.0218
18      255.502 1 2 100 -199258 0.507681
19      255.502 1 2 100 -199258 1.27674
20      255.502 1 2 100 -199258 2.04581
21      255.502 1 2 100 -199258 2.81487
22      255.502 1 2 100 -199258 3.58393
23      255.502 1 2 100 -199258 4.35299
24      255.502 1 2 100 -199258 5.12205
25      255.502 1 2 100 -199258 5.89111
26      255.502 1 2 100 -199258 0.376991
27      255.502 1 2 100 -199258 1.14605
28      255.502 1 2 100 -199258 1.91511
29      255.502 1 2 100 -199258 2.68418
30      255.502 1 2 100 -199258 3.45324
31      255.502 1 2 100 -199258 4.2223
32      255.502 1 2 100 -199258 4.99136
33      255.502 1 2 100 -199258 5.76042
34      255.502 1 2 100 -199258 0.246301
35      255.502 1 2 100 -199258 1.01536
36      255.502 1 2 100 -199258 1.78442
37      255.502 1 2 100 -199258 2.55349
38      255.502 1 2 100 -199258 3.32255
39      255.502 1 2 100 -199258 4.09161
40      255.502 1 2 100 -199258 4.86067
41      255.502 1 2 100 -766.375 0
42      255.502 1 2 100 -766.375 4.28036
43      255.502 1 2 100 -766.375 2.27753
44      255.502 1 2 100 -766.375 0.274701
45      255.502 1 2 100 -766.375 4.55506
46      255.502 1 2 100 -766.375 2.55223
47      255.502 1 2 100 -766.375 0.549402
48      255.502 1 2 100 -766.375 4.82976
49      255.502 1 2 100 -766.375 2.82693
50      255.502 1 2 100 -766.375 0.824103
51      255.502 1 2 100 -766.375 5.10446
52      255.502 1 2 100 -766.375 3.10163
53      255.502 1 2 100 -766.375 1.0988
54      255.502 1 2 100 -766.375 5.37916
55      255.502 1 2 100 -766.375 3.37633
56      255.502 1 2 100 -766.375 1.3735
57      255.502 1 2 100 -766.375 5.65386
58      255.502 1 2 100 -766.375 3.65103
59      255.502 1 2 100 -766.375 1.64821
60      255.502 1 2 100 -766.375 5.92856
61      255.502 1 2 100 -766.375 3.92573
62      255.502 1 2 100 -766.375 1.92291
63      255.502 1 2 100 -766.375 6.20326
64      255.502 1 2 100 -766.375 4.20044
65      255.502 1 2 100 -766.375 2.19761
66      255.502 1 2 100 -766.375 0.194779
67      255.502 1 2 100 -766.375 4.47514
68      255.502 1 2 100 -766.375 2.47231
69      255.502 1 2 100 -766.375 0.46948
70      255.502 1 2 100 -766.375 4.74984
71      255.502 1 2 100 -766.375 2.74701
72      255.502 1 2 100 -766.375 0.74418
73      255.502 1 2 100 -766.375 5.02454
74      255.502 1 2 100 -766.375 3.02171
75      255.502 1 2 100 -766.375 1.01888
76      255.502 1 2 100 -766.375 5.29924
77      255.502 1 2 100 -766.375 3.29641
78      255.502 1 2 100 -766.375 1.29358
79      255.502 1 2 100 -766.375 5.57394
80      255.502 1 2 100 -766.375 3.57111
81      255.502 1 2 100 -702.511 0
82      255.502 1 2 100 -702.511 5.49446
83      255.502 1 2 100 -702.511 4.70573
84      255.502 1 2 100 -702.511 3.917
85      255.502 1 2 100 -702.511 3.12827
86      255.502 1 2 100 -702.511 2.33954
87      255.502 1 2 100 -702.511 1.55082
88      255.502 1 2 100 -702.511 0.762088
89      255.502 1 2 100 -702.511 6.25654
90      255.502 1 2 100 -702.511 5.46782
91      255.502 1 2 100 -702.511 4.67909
92      255.502 1 2 100 -702.511 3.89036
93      255.502 1 2 100 -702.511 3.10163
94      255.502 1 2 100 -702.511 2.3129
95      255.502 1 2 100 -702.511 1.52418
96      255.502 1 2 100 -702.511 0.735447
97      255.502 1 2 100 -702.511 6.2299
98      255.502 1 2 100 -702.511 5.44118
99      255.502 1 2 100 -702.511 4.65245
100      255.502 1 2 100 -702.511 3.86372
101      255.502 1 2 100 -702.511 3.07499
102      255.502 1 2 100 -702.511 2.28626
103      255.502 1 2 100 -702.511 1.49753
104      255.502 1 2 100 -702.511 0.708806
105      255.502 1 2 100 -702.511 6.20326
106      255.502 1 2 100 -702.511 5.41453
107      255.502 1 2 100 -702.511 4.62581
108      255.502 1 2 100 -702.511 3.83708
109      255.502 1 2 100 -702.511 3.04835
110      255.502 1 2 100 -702.511 2.25962
111      255.502 1 2 100 -702.511 1.47089
112      255.502 1 2 100 -702.511 0.682165
113      255.502 1 2 100 -702.511 6.17662
114      255.502 1 2 100 -702.511 5.38789
115      255.502 1 2 100 -702.511 4.59917
116      255.502 1 2 100 -702.511 3.81044
117      255.502 1 2 100 -702.511 3.02171
118      255.502 1 2 100 -702.511 2.23298
119      255.502 1 2 100 -702.511 1.44425
120      255.502 1 2 100 -702.511 0.655525
121      255.502 1 2 100 -638.646 0
122      255.502 1 2 100 -638.646 0.425372
123      255.502 1 2 100 -638.646 0.850743
124      255.502 1 2 100 -638.646 1.27611
125      255.502 1 2 100 -638.646 1.70149
126      255.502 1 2 100 -638.646 2.12686
127      255.502 1 2 100 -638.646 2.55223
128      255.502 1 2 100 -638.646 2.9776
129      255.502 1 2 100 -638.646 3.40297
130      255.502 1 2 100 -638.646 3.82834
131      255.502 1 2 100 -638.646 4.25372
132      255.502 1 2 100 -638.646 4.67909
133      255.502 1 2 100 -638.646 5.10446
134      255.502 1 2 100 -638.646 5.52983
135      255.502 1 2 100 -638.646 5.9552
136      255.502 1 2 100 -638.646 0.0973894
137      255.502 1 2 100 -638.646 0.522761
138      255.502 1 2 100 -638.646 0.948133
139      255.502 1 2 100 -638.646 1.3735
140      255.502 1 2 100 -638.646 1.79888
141      255.502 1 2 100 -638.646 2.22425
142      255.502 1 2 100 -638.646 2.64962
143      255.502 1 2 100 -638.646 3.07499
144      255.502 1 2 100 -638.646 3.50036
145      255.502 1 2 100 -638.646 3.92573
146      255.502 1 2 100 -638.646 4.35111
147      255.502 1 2 100 -638.646 4.77648
148      255.502 1 2 100 -638.646 5.20185
149      255.502 1 2 100 -638.646 5.62722
150      255.502 1 2 100 -638.646 6.05259
151      255.502 1 2 100 -638.646 0.194779
152      255.502 1 2 100 -638.646 0.62015
153      255.502 1 2 100 -638.646 1.04552
154      255.502 1 2 100 -638.646 1.47089
155      255.502 1 2 100 -638.646 1.89627
156      255.502 1 2 100 -638.646 2.32164
157      255.502 1 2 100 -638.646 2.74701
158      255.502 1 2 100 -638.646 3.17238
159      255.502 1 2 100 -638.646 3.59775
160      255.502 1 2 100 -638.646 4.02312
161      255.502 1 2 100 -574.781 0
162      255.502 1 2 100 -574.781 1.63947
163      255.502 1 2 100 -574.781 3.27894
164      255.502 1 2 100 -574.781 4.91841
165      255.502 1 2 100 -574.781 0.274701
166      255.502 1 2 100 -574.781 1.91417
167      255.502 1 2 100 -574.781 3.55364
168      255.502 1 2 100 -574.781 5.19312
169      255.502 1 2 100 -574.781 0.549402
170      255.502 1 2 100 -574.781 2.18887
171      255.502 1 2 100 -574.781 3.82834
172      255.502 1 2 100 -574.781 5.46782
173      255.502 1 2 100 -574.781 0.824103
174      255.502 1 2 100 -574.781 2.46357
175      255.502 1 2 100 -574.781 4.10305
176      255.502 1 2 100 -574.781 5.74252
177      255.502 1 2 100 -574.781 1.0988
178      255.502 1 2 100 -574.781 2.73827
179      255.502 1 2 100 -574.781 4.37775
180      255.502 1 2 100 -574.781 6.01722
181      255.502 1 2 100 -574.781 1.3735
182      255.502 1 2 100 -574.781 3.01298
183      255.502 1 2 100 -574.781 4.65245
184      255.502 1 2 100 -574.781 0.00873363
185      255.502 1 2 100 -574.781 1.64821
186      255.502 1 2 100 -574.781 3.28768
187      255.502 1 2 100 -574.781 4.92715
188      255.502 1 2 100 -574.781 0.283434
189      255.502 1 2 100 -574.781 1.92291
190      255.502 1 2 100 -574.781 3.56238
191      255.502 1 2 100 -574.781 5.20185
192      255.502 1 2 100 -574.781 0.558135
193      255.502 1 2 100 -574.781 2.19761
194      255.502 1 2 100 -574.781 3.83708
195      255.502 1 2 100 -574.781 5.47655
196      255.502 1 2 100 -574.781 0.832836
197      255.502 1 2 100 -574.781 2.47231
198      255.502 1 2 100 -574.781 4.11178
199      255.502 1 2 100 -574.781 5.75125
200      255.502 1 2 100 -574.781 1.10754
201      255.502 1 2 100 -510.917 0
202      255.502 1 2 100 -510.917 2.85357
203      255.502 1 2 100 -510.917 5.70714
204      255.502 1 2 100 -510.917 2.27753
205      255.502 1 2 100 -510.917 5.1311
206      255.502 1 2 100 -510.917 1.70149
207      255.502 1 2 100 -510.917 4.55506
208      255.502 1 2 100 -510.917 1.12544
209      255.502 1 2 100 -510.917 3.97902
210      255.502 1 2 100 -510.917 0.549402
211      255.502 1 2 100 -510.917 3.40297
212      255.502 1 2 100 -510.917 6.25654
213      255.502 1 2 100 -510.917 2.82693
214      255.502 1 2 100 -510.917 5.6805
215      255.502 1 2 100 -510.917 2.25089
216      255.502 1 2 100 -510.917 5.10446
217      255.502 1 2 100 -510.917 1.67485
218      255.502 1 2 100 -510.917 4.52842
219      255.502 1 2 100 -510.917 1.0988
220      255.502 1 2 100 -510.917 3.95237
221      255.502 1 2 100 -510.917 0.522761
222      255.502 1 2 100 -510.917 3.37633
223      255.502 1 2 100 -510.917 6.2299
224      255.502 1 2 100 -510.917 2.80029
225      255.502 1 2 100 -510.917 5.65386
226      255.502 1 2 100 -510.917 2.22425
227      255.502 1 2 100 -510.917 5.07782
228      255.502 1 2 100 -510.917 1.64821
229      255.502 1 2 100 -510.917 4.50178
230      255.502 1 2 100 -510.917 1.07216
231      255.502 1 2 100 -510.917 3.92573
232      255.502 1 2 100 -510.917 0.49612
233      255.502 1 2 100 -510.917 3.34969
234      255.502 1 2 100 -510.917 6.20326
235      255.502 1 2 100 -510.917 2.77365
236      255.502 1 2 100 -510.917 5.62722
237      255.502 1 2 100 -510.917 2.19761
238      255.502 1 2 100 -510.917 5.05118
239      255.502 1 2 100 -510.917 1.62156
240      255.502 1 2 100 -510.917 4.47514
241      255.502 1 2 100 -447.052 0
242      255.502 1 2 100 -447.052 4.06767
243      255.502 1 2 100 -447.052 1.85216
244      255.502 1 2 100 -447.052 5.91983
245      255.502 1 2 100 -447.052 3.70431
246      255.502 1 2 100 -447.052 1.4888
247      255.502 1 2 100 -447.052 5.55647
248      255.502 1 2 100 -447.052 3.34096
249      255.502 1 2 100 -447.052 1.12544
250      255.502 1 2 100 -447.052 5.19312
251      255.502 1 2 100 -447.052 2.9776
252      255.502 1 2 100 -447.052 0.762088
253      255.502 1 2 100 -447.052 4.82976
254      255.502 1 2 100 -447.052 2.61424
255      255.502 1 2 100 -447.052 0.398731
256      255.502 1 2 100 -447.052 4.4664
257      255.502 1 2 100 -447.052 2.25089
258      255.502 1 2 100 -447.052 0.0353743
259      255.502 1 2 100 -447.052 4.10305
260      255.502 1 2 100 -447.052 1.88753
261      255.502 1 2 100 -447.052 5.9552
262      255.502 1 2 100 -447.052 3.73969
263      255.502 1 2 100 -447.052 1.52418
264      255.502 1 2 100 -447.052 5.59185
265      255.502 1 2 100 -447.052 3.37633
266      255.502 1 2 100 -447.052 1.16082
267      255.502 1 2 100 -447.052 5.22849
268      255.502 1 2 100 -447.052 3.01298
269      255.502 1 2 100 -447.052 0.797462
270      255.502 1 2 100 -447.052 4.86513
271      255.502 1 2 100 -447.052 2.64962
272      255.502 1 2 100 -447.052 0.434105
273      255.502 1 2 100 -447.052 4.50178
274      255.502 1 2 100 -447.052 2.28626
275      255.502 1 2 100 -447.052 0.0707487
276      255.502 1 2 100 -447.052 4.13842
277      255.502 1 2 100 -447.052 1.92291
278      255.502 1 2 100 -447.052 5.99058
279      255.502 1 2 100 -447.052 3.77506
280      255.502 1 2 100 -447.052 1.55955
281      255.502 1 2 100 -383.188 0
282      255.502 1 2 100 -383.188 5.28177
283      255.502 1 2 100 -383.188 4.28036
284      255.502 1 2 100 -383.188 3.27894
285      255.502 1 2 100 -383.188 2.27753
286      255.502 1 2 100 -383.188 1.27611
287      255.502 1 2 100 -383.188 0.274701
288      255.502 1 2 100 -383.188 5.55647
289      255.502 1 2 100 -383.188 4.55506
290      255.502 1 2 100 -383.188 3.55364
291      255.502 1 2 100 -383.188 2.55223
292      255.502 1 2 100 -383.188 1.55082
293      255.502 1 2 100 -383.188 0.549402
294      255.502 1 2 100 -383.188 5.83117
295      255.502 1 2 100 -383.188 4.82976
296      255.502 1 2 100 -383.188 3.82834
297      255.502 1 2 100 -383.188 2.82693
298      255.502 1 2 100 -383.188 1.82552
299      255.502 1 2 100 -383.188 0.824103
300      255.502 1 2 100 -383.188 6.10587
301      255.502 1 2 100 -383.188 5.10446
302      255.502 1 2 100 -383.188 4.10305
303      255.502 1 2 100 -383.188 3.10163
304      255.502 1 2 100 -383.188 2.10022
305      255.502 1 2 100 -383.188 1.0988
306      255.502 1 2 100 -383.188 0.0973894
307      255.502 1 2 100 -383.188 5.37916
308      255.502 1 2 100 -383.188 4.37775
309      255.502 1 2 100 -383.188 3.37633
310      255.502 1 2 100 -383.188 2.37492
311      255.502 1 2 100 -383.188 1.3735
312      255.502 1 2 100 -383.188 0.37209
313      255.502 1 2 100 -383.188 5.65386
314      255.502 1 2 100 -383.188 4.65245
315      255.502 1 2 100 -383.188 3.65103
316      255.502 1 2 100 -383.188 2.64962
317      255.502 1 2 100 -383.188 1.64821
318      255.502 1 2 100 -383.188 0.646791
319      255.502 1 2 100 -383.188 5.92856
320      255.502 1 2 100 -383.188 4.92715
321      255.502 1 2 100 -319.323 0
322      255.502 1 2 100 -319.323 0.212686
323      255.502 1 2 100 -319.323 0.425372
324      255.502 1 2 100 -319.323 0.638057
325      255.502 1 2 100 -319.323 0.850743
326      255.502 1 2 100 -319.323 1.06343
327      255.502 1 2 100 -319.323 1.27611
328      255.502 1 2 100 -319.323 1.4888
329      255.502 1 2 100 -319.323 1.70149
330      255.502 1 2 100 -319.323 1.91417
331      255.502 1 2 100 -319.323 2.12686
332      255.502 1 2 100 -319.323 2.33954
333      255.502 1 2 100 -319.323 2.55223
334      255.502 1 2 100 -319.323 2.76492
335      255.502 1 2 100 -319.323 2.9776
336      255.502 1 2 100 -319.323 3.19029
337      255.502 1 2 100 -319.323 3.40297
338      255.502 1 2 100 -319.323 3.61566
339      255.502 1 2 100 -319.323 3.82834
340      255.502 1 2 100 -319.323 4.04103
341      255.502 1 2 100 -319.323 4.25372
342      255.502 1 2 100 -319.323 4.4664
343      255.502 1 2 100 -319.323 4.67909
344      255.502 1 2 100 -319.323 4.89177
345      255.502 1 2 100 -319.323 5.10446
346      255.502 1 2 100 -319.323 5.31715
347      255.502 1 2 100 -319.323 5.52983
348      255.502 1 2 100 -319.323 5.74252
349      255.502 1 2 100 -319.323 5.9552
350      255.502 1 2 100 -319.323 6.16789
351      255.502 1 2 100 -319.323 0.0973894
352      255.502 1 2 100 -319.323 0.310075
353      255.502 1 2 100 -319.323 0.522761
354      255.502 1 2 100 -319.323 0.735447
355      255.502 1 2 100 -319.323 0.948133
356      255.502 1 2 100 -319.323 1.16082
357      255.502 1 2 100 -319.323 1.3735
358      255.502 1 2 100 -319.323 1.58619
359      255.502 1 2 100 -319.323 1.79888
360      255.502 1 2 100 -319.323 2.01156
361      255.502 1 2 100 -255.458 0
362      255.502 1 2 100 -255.458 1.42679
363      255.502 1 2 100 -255.458 2.85357
364      255.502 1 2 100 -255.458 4.28036
365      255.502 1 2 100 -255.458 5.70714
366      255.502 1 2 100 -255.458 0.850743
367      255.502 1 2 100 -255.458 2.27753
368      255.502 1 2 100 -255.458 3.70431
369      255.502 1 2 100 -255.458 5.1311
370      255.502 1 2 100 -255.458 0.274701
371      255.502 1 2 100 -255.458 1.70149
372      255.502 1 2 100 -255.458 3.12827
373      255.502 1 2 100 -255.458 4.55506
374      255.502 1 2 100 -255.458 5.98184
375      255.502 1 2 100 -255.458 1.12544
376      255.502 1 2 100 -255.458 2.55223
377      255.502 1 2 100 -255.458 3.97902
378      255.502 1 2 100 -255.458 5.4058
379      255.502 1 2 100 -255.458 0.549402
380      255.502 1 2 100 -255.458 1.97619
381      255.502 1 2 100 -255.458 3.40297
382      255.502 1 2 100 -255.458 4.82976
383      255.502 1 2 100 -255.458 6.25654
384      255.502 1 2 100 -255.458 1.40015
385      255.502 1 2 100 -255.458 2.82693
386      255.502 1 2 100 -255.458 4.25372
387      255.502 1 2 100 -255.458 5.6805
388      255.502 1 2 100 -255.458 0.824103
389      255.502 1 2 100 -255.458 2.25089
390      255.502 1 2 100 -255.458 3.67767
391      255.502 1 2 100 -255.458 5.10446
392      255.502 1 2 100 -255.458 0.24806
393      255.502 1 2 100 -255.458 1.67485
394      255.502 1 2 100 -255.458 3.10163
395      255.502 1 2 100 -255.458 4.52842
396      255.502 1 2 100 -255.458 5.9552
397      255.502 1 2 100 -255.458 1.0988
398      255.502 1 2 100 -255.458 2.52559
399      255.502 1 2 100 -255.458 3.95237
400      255.502 1 2 100 -255.458 5.37916
401      255.502 1 2 100 -191.594 0
402      255.502 1 2 100 -191.594 2.64089
403      255.502 1 2 100 -191.594 5.28177
404      255.502 1 2 100 -191.594 1.63947
405      255.502 1 2 100 -191.594 4.28036
406      255.502 1 2 100 -191.594 0.638057
407      255.502 1 2 100 -191.594 3.27894
408      255.502 1 2 100 -191.594 5.91983
409      255.502 1 2 100 -191.594 2.27753
410      255.502 1 2 100 -191.594 4.91841
411      255.502 1 2 100 -191.594 1.27611
412      255.502 1 2 100 -191.594 3.917
413      255.502 1 2 100 -191.594 0.274701
414      255.502 1 2 100 -191.594 2.91559
415      255.502 1 2 100 -191.594 5.55647
416      255.502 1 2 100 -191.594 1.91417
417      255.502 1 2 100 -191.594 4.55506
418      255.502 1 2 100 -191.594 0.912758
419      255.502 1 2 100 -191.594 3.55364
420      255.502 1 2 100 -191.594 6.19453
421      255.502 1 2 100 -191.594 2.55223
422      255.502 1 2 100 -191.594 5.19312
423      255.502 1 2 100 -191.594 1.55082
424      255.502 1 2 100 -191.594 4.1917
425      255.502 1 2 100 -191.594 0.549402
426      255.502 1 2 100 -191.594 3.19029
427      255.502 1 2 100 -191.594 5.83117
428      255.502 1 2 100 -191.594 2.18887
429      255.502 1 2 100 -191.594 4.82976
430      255.502 1 2 100 -191.594 1.18746
431      255.502 1 2 100 -191.594 3.82834
432      255.502 1 2 100 -191.594 0.186045
433      255.502 1 2 100 -191.594 2.82693
434      255.502 1 2 100 -191.594 5.46782
435      255.502 1 2 100 -191.594 1.82552
436      255.502 1 2 100 -191.594 4.4664
437      255.502 1 2 100 -191.594 0.824103
438      255.502 1 2 100 -191.594 3.46499
439      255.502 1 2 100 -191.594 6.10587
440      255.502 1 2 100 -191.594 2.46357
441      255.502 1 2 100 -127.729 0
442      255.502 1 2 100 -127.729 3.85499
443      255.502 1 2 100 -127.729 1.42679
444      255.502 1 2 100 -127.729 5.28177
445      255.502 1 2 100 -127.729 2.85357
446      255.502 1 2 100 -127.729 0.425372
447      255.502 1 2 100 -127.729 4.28036
448      255.502 1 2 100 -127.729 1.85216
449      255.502 1 2 100 -127.729 5.70714
450      255.502 1 2 100 -127.729 3.27894
451      255.502 1 2 100 -127.729 0.850743
452      255.502 1 2 100 -127.729 4.70573
453      255.502 1 2 100 -127.729 2.27753
454      255.502 1 2 100 -127.729 6.13251
455      255.502 1 2 100 -127.729 3.70431
456      255.502 1 2 100 -127.729 1.27611
457      255.502 1 2 100 -127.729 5.1311
458      255.502 1 2 100 -127.729 2.7029
459      255.502 1 2 100 -127.729 0.274701
460      255.502 1 2 100 -127.729 4.12969
461      255.502 1 2 100 -127.729 1.70149
462      255.502 1 2 100 -127.729 5.55647
463      255.502 1 2 100 -127.729 3.12827
464      255.502 1 2 100 -127.729 0.700073
465      255.502 1 2 100 -127.729 4.55506
466      255.502 1 2 100 -127.729 2.12686
467      255.502 1 2 100 -127.729 5.98184
468      255.502 1 2 100 -127.729 3.55364
469      255.502 1 2 100 -127.729 1.12544
470      255.502 1 2 100 -127.729 4.98043
471      255.502 1 2 100 -127.729 2.55223
472      255.502 1 2 100 -127.729 0.12403
473      255.502 1 2 100 -127.729 3.97902
474      255.502 1 2 100 -127.729 1.55082
475      255.502 1 2 100 -127.729 5.4058
476      255.502 1 2 100 -127.729 2.9776
477      255.502 1 2 100 -127.729 0.549402
478      255.502 1 2 100 -127.729 4.40439
479      255.502 1 2 100 -127.729 1.97619
480      255.502 1 2 100 -127.729 5.83117
