# Pulseq sequence file
# Created by MATLAB mr toolbox

[VERSION]
major 1
minor 3
revision 0

[DEFINITIONS]
offsets_ppm -4 -3.75 -3.5 -3.25 -3 -2.75 -2.5 -2.25 -2 -1.75 -1.5 -1.25 -1 -0.75 -0.5 -0.25 0 0.25 0.5 0.75 1 1.25 1.5 1.75 2 2.25 2.5 2.75 3 3.25 3.5 3.75 4 
run_m0_scan 1 

# Format of blocks:
#  #  D RF  GX  GY  GZ ADC EXT
[BLOCKS]
  1  1  0   0   0   0  0  0
  2  0  0   0   0   0  1  0
  3  2  0   0   0   0  0  0
  4  0  1   0   0   0  0  0
  5  3  0   0   0   0  0  0
  6  0  2   0   0   0  0  0
  7  3  0   0   0   0  0  0
  8  4  0   0   0   0  0  0
  9  0  3   0   0   0  0  0
 10  3  0   0   0   0  0  0
 11  0  4   0   0   0  0  0
 12  3  0   0   0   0  0  0
 13  4  0   0   0   0  0  0
 14  0  5   0   0   0  0  0
 15  3  0   0   0   0  0  0
 16  0  6   0   0   0  0  0
 17  3  0   0   0   0  0  0
 18  4  0   0   0   0  0  0
 19  0  7   0   0   0  0  0
 20  3  0   0   0   0  0  0
 21  0  8   0   0   0  0  0
 22  0  0   1   1   1  0  0
 23  0  0   0   0   0  1  0
 24  2  0   0   0   0  0  0
 25  0  9   0   0   0  0  0
 26  3  0   0   0   0  0  0
 27  0 10   0   0   0  0  0
 28  3  0   0   0   0  0  0
 29  4  0   0   0   0  0  0
 30  0 11   0   0   0  0  0
 31  3  0   0   0   0  0  0
 32  0 12   0   0   0  0  0
 33  3  0   0   0   0  0  0
 34  4  0   0   0   0  0  0
 35  0 13   0   0   0  0  0
 36  3  0   0   0   0  0  0
 37  0 14   0   0   0  0  0
 38  3  0   0   0   0  0  0
 39  4  0   0   0   0  0  0
 40  0 15   0   0   0  0  0
 41  3  0   0   0   0  0  0
 42  0 16   0   0   0  0  0
 43  0  0   1   1   1  0  0
 44  0  0   0   0   0  1  0
 45  2  0   0   0   0  0  0
 46  0 17   0   0   0  0  0
 47  3  0   0   0   0  0  0
 48  0 18   0   0   0  0  0
 49  3  0   0   0   0  0  0
 50  4  0   0   0   0  0  0
 51  0 19   0   0   0  0  0
 52  3  0   0   0   0  0  0
 53  0 20   0   0   0  0  0
 54  3  0   0   0   0  0  0
 55  4  0   0   0   0  0  0
 56  0 21   0   0   0  0  0
 57  3  0   0   0   0  0  0
 58  0 22   0   0   0  0  0
 59  3  0   0   0   0  0  0
 60  4  0   0   0   0  0  0
 61  0 23   0   0   0  0  0
 62  3  0   0   0   0  0  0
 63  0 24   0   0   0  0  0
 64  0  0   1   1   1  0  0
 65  0  0   0   0   0  1  0
 66  2  0   0   0   0  0  0
 67  0 25   0   0   0  0  0
 68  3  0   0   0   0  0  0
 69  0 26   0   0   0  0  0
 70  3  0   0   0   0  0  0
 71  4  0   0   0   0  0  0
 72  0 27   0   0   0  0  0
 73  3  0   0   0   0  0  0
 74  0 28   0   0   0  0  0
 75  3  0   0   0   0  0  0
 76  4  0   0   0   0  0  0
 77  0 29   0   0   0  0  0
 78  3  0   0   0   0  0  0
 79  0 30   0   0   0  0  0
 80  3  0   0   0   0  0  0
 81  4  0   0   0   0  0  0
 82  0 31   0   0   0  0  0
 83  3  0   0   0   0  0  0
 84  0 32   0   0   0  0  0
 85  0  0   1   1   1  0  0
 86  0  0   0   0   0  1  0
 87  2  0   0   0   0  0  0
 88  0 33   0   0   0  0  0
 89  3  0   0   0   0  0  0
 90  0 34   0   0   0  0  0
 91  3  0   0   0   0  0  0
 92  4  0   0   0   0  0  0
 93  0 35   0   0   0  0  0
 94  3  0   0   0   0  0  0
 95  0 36   0   0   0  0  0
 96  3  0   0   0   0  0  0
 97  4  0   0   0   0  0  0
 98  0 37   0   0   0  0  0
 99  3  0   0   0   0  0  0
100  0 38   0   0   0  0  0
101  3  0   0   0   0  0  0
102  4  0   0   0   0  0  0
103  0 39   0   0   0  0  0
104  3  0   0   0   0  0  0
105  0 40   0   0   0  0  0
106  0  0   1   1   1  0  0
107  0  0   0   0   0  1  0
108  2  0   0   0   0  0  0
109  0 41   0   0   0  0  0
110  3  0   0   0   0  0  0
111  0 42   0   0   0  0  0
112  3  0   0   0   0  0  0
113  4  0   0   0   0  0  0
114  0 43   0   0   0  0  0
115  3  0   0   0   0  0  0
116  0 44   0   0   0  0  0
117  3  0   0   0   0  0  0
118  4  0   0   0   0  0  0
119  0 45   0   0   0  0  0
120  3  0   0   0   0  0  0
121  0 46   0   0   0  0  0
122  3  0   0   0   0  0  0
123  4  0   0   0   0  0  0
124  0 47   0   0   0  0  0
125  3  0   0   0   0  0  0
126  0 48   0   0   0  0  0
127  0  0   1   1   1  0  0
128  0  0   0   0   0  1  0
129  2  0   0   0   0  0  0
130  0 49   0   0   0  0  0
131  3  0   0   0   0  0  0
132  0 50   0   0   0  0  0
133  3  0   0   0   0  0  0
134  4  0   0   0   0  0  0
135  0 51   0   0   0  0  0
136  3  0   0   0   0  0  0
137  0 52   0   0   0  0  0
138  3  0   0   0   0  0  0
139  4  0   0   0   0  0  0
140  0 53   0   0   0  0  0
141  3  0   0   0   0  0  0
142  0 54   0   0   0  0  0
143  3  0   0   0   0  0  0
144  4  0   0   0   0  0  0
145  0 55   0   0   0  0  0
146  3  0   0   0   0  0  0
147  0 56   0   0   0  0  0
148  0  0   1   1   1  0  0
149  0  0   0   0   0  1  0
150  2  0   0   0   0  0  0
151  0 57   0   0   0  0  0
152  3  0   0   0   0  0  0
153  0 58   0   0   0  0  0
154  3  0   0   0   0  0  0
155  4  0   0   0   0  0  0
156  0 59   0   0   0  0  0
157  3  0   0   0   0  0  0
158  0 60   0   0   0  0  0
159  3  0   0   0   0  0  0
160  4  0   0   0   0  0  0
161  0 61   0   0   0  0  0
162  3  0   0   0   0  0  0
163  0 62   0   0   0  0  0
164  3  0   0   0   0  0  0
165  4  0   0   0   0  0  0
166  0 63   0   0   0  0  0
167  3  0   0   0   0  0  0
168  0 64   0   0   0  0  0
169  0  0   1   1   1  0  0
170  0  0   0   0   0  1  0
171  2  0   0   0   0  0  0
172  0 65   0   0   0  0  0
173  3  0   0   0   0  0  0
174  0 66   0   0   0  0  0
175  3  0   0   0   0  0  0
176  4  0   0   0   0  0  0
177  0 67   0   0   0  0  0
178  3  0   0   0   0  0  0
179  0 68   0   0   0  0  0
180  3  0   0   0   0  0  0
181  4  0   0   0   0  0  0
182  0 69   0   0   0  0  0
183  3  0   0   0   0  0  0
184  0 70   0   0   0  0  0
185  3  0   0   0   0  0  0
186  4  0   0   0   0  0  0
187  0 71   0   0   0  0  0
188  3  0   0   0   0  0  0
189  0 72   0   0   0  0  0
190  0  0   1   1   1  0  0
191  0  0   0   0   0  1  0
192  2  0   0   0   0  0  0
193  0 73   0   0   0  0  0
194  3  0   0   0   0  0  0
195  0 74   0   0   0  0  0
196  3  0   0   0   0  0  0
197  4  0   0   0   0  0  0
198  0 75   0   0   0  0  0
199  3  0   0   0   0  0  0
200  0 76   0   0   0  0  0
201  3  0   0   0   0  0  0
202  4  0   0   0   0  0  0
203  0 77   0   0   0  0  0
204  3  0   0   0   0  0  0
205  0 78   0   0   0  0  0
206  3  0   0   0   0  0  0
207  4  0   0   0   0  0  0
208  0 79   0   0   0  0  0
209  3  0   0   0   0  0  0
210  0 80   0   0   0  0  0
211  0  0   1   1   1  0  0
212  0  0   0   0   0  1  0
213  2  0   0   0   0  0  0
214  0 81   0   0   0  0  0
215  3  0   0   0   0  0  0
216  0 82   0   0   0  0  0
217  3  0   0   0   0  0  0
218  4  0   0   0   0  0  0
219  0 83   0   0   0  0  0
220  3  0   0   0   0  0  0
221  0 84   0   0   0  0  0
222  3  0   0   0   0  0  0
223  4  0   0   0   0  0  0
224  0 85   0   0   0  0  0
225  3  0   0   0   0  0  0
226  0 86   0   0   0  0  0
227  3  0   0   0   0  0  0
228  4  0   0   0   0  0  0
229  0 87   0   0   0  0  0
230  3  0   0   0   0  0  0
231  0 88   0   0   0  0  0
232  0  0   1   1   1  0  0
233  0  0   0   0   0  1  0
234  2  0   0   0   0  0  0
235  0 89   0   0   0  0  0
236  3  0   0   0   0  0  0
237  0 90   0   0   0  0  0
238  3  0   0   0   0  0  0
239  4  0   0   0   0  0  0
240  0 91   0   0   0  0  0
241  3  0   0   0   0  0  0
242  0 92   0   0   0  0  0
243  3  0   0   0   0  0  0
244  4  0   0   0   0  0  0
245  0 93   0   0   0  0  0
246  3  0   0   0   0  0  0
247  0 94   0   0   0  0  0
248  3  0   0   0   0  0  0
249  4  0   0   0   0  0  0
250  0 95   0   0   0  0  0
251  3  0   0   0   0  0  0
252  0 96   0   0   0  0  0
253  0  0   1   1   1  0  0
254  0  0   0   0   0  1  0
255  2  0   0   0   0  0  0
256  0 97   0   0   0  0  0
257  3  0   0   0   0  0  0
258  0 98   0   0   0  0  0
259  3  0   0   0   0  0  0
260  4  0   0   0   0  0  0
261  0 99   0   0   0  0  0
262  3  0   0   0   0  0  0
263  0 100   0   0   0  0  0
264  3  0   0   0   0  0  0
265  4  0   0   0   0  0  0
266  0 101   0   0   0  0  0
267  3  0   0   0   0  0  0
268  0 102   0   0   0  0  0
269  3  0   0   0   0  0  0
270  4  0   0   0   0  0  0
271  0 103   0   0   0  0  0
272  3  0   0   0   0  0  0
273  0 104   0   0   0  0  0
274  0  0   1   1   1  0  0
275  0  0   0   0   0  1  0
276  2  0   0   0   0  0  0
277  0 105   0   0   0  0  0
278  3  0   0   0   0  0  0
279  0 106   0   0   0  0  0
280  3  0   0   0   0  0  0
281  4  0   0   0   0  0  0
282  0 107   0   0   0  0  0
283  3  0   0   0   0  0  0
284  0 108   0   0   0  0  0
285  3  0   0   0   0  0  0
286  4  0   0   0   0  0  0
287  0 109   0   0   0  0  0
288  3  0   0   0   0  0  0
289  0 110   0   0   0  0  0
290  3  0   0   0   0  0  0
291  4  0   0   0   0  0  0
292  0 111   0   0   0  0  0
293  3  0   0   0   0  0  0
294  0 112   0   0   0  0  0
295  0  0   1   1   1  0  0
296  0  0   0   0   0  1  0
297  2  0   0   0   0  0  0
298  0 113   0   0   0  0  0
299  3  0   0   0   0  0  0
300  0 114   0   0   0  0  0
301  3  0   0   0   0  0  0
302  4  0   0   0   0  0  0
303  0 115   0   0   0  0  0
304  3  0   0   0   0  0  0
305  0 116   0   0   0  0  0
306  3  0   0   0   0  0  0
307  4  0   0   0   0  0  0
308  0 117   0   0   0  0  0
309  3  0   0   0   0  0  0
310  0 118   0   0   0  0  0
311  3  0   0   0   0  0  0
312  4  0   0   0   0  0  0
313  0 119   0   0   0  0  0
314  3  0   0   0   0  0  0
315  0 120   0   0   0  0  0
316  0  0   1   1   1  0  0
317  0  0   0   0   0  1  0
318  2  0   0   0   0  0  0
319  0 121   0   0   0  0  0
320  3  0   0   0   0  0  0
321  0 122   0   0   0  0  0
322  3  0   0   0   0  0  0
323  4  0   0   0   0  0  0
324  0 123   0   0   0  0  0
325  3  0   0   0   0  0  0
326  0 124   0   0   0  0  0
327  3  0   0   0   0  0  0
328  4  0   0   0   0  0  0
329  0 125   0   0   0  0  0
330  3  0   0   0   0  0  0
331  0 126   0   0   0  0  0
332  3  0   0   0   0  0  0
333  4  0   0   0   0  0  0
334  0 127   0   0   0  0  0
335  3  0   0   0   0  0  0
336  0 128   0   0   0  0  0
337  0  0   1   1   1  0  0
338  0  0   0   0   0  1  0
339  2  0   0   0   0  0  0
340  0 129   0   0   0  0  0
341  3  0   0   0   0  0  0
342  0 129   0   0   0  0  0
343  3  0   0   0   0  0  0
[RF]
1      85.1528 1 2 100 -510.917 0
2      85.1528 1 2 100 -510.917 5.70714
3      85.1528 1 2 100 -510.917 5.1311
4      85.1528 1 2 100 -510.917 4.55506
5      85.1528 1 2 100 -510.917 3.97902
6      85.1528 1 2 100 -510.917 3.40297
7      85.1528 1 2 100 -510.917 2.82693
8      85.1528 1 2 100 -510.917 2.25089
9      85.1528 1 2 100 -478.984 0
10      85.1528 1 2 100 -478.984 0.638057
11      85.1528 1 2 100 -478.984 1.27611
12      85.1528 1 2 100 -478.984 1.91417
13      85.1528 1 2 100 -478.984 2.55223
14      85.1528 1 2 100 -478.984 3.19029
15      85.1528 1 2 100 -478.984 3.82834
16      85.1528 1 2 100 -478.984 4.4664
17      85.1528 1 2 100 -447.052 0
18      85.1528 1 2 100 -447.052 1.85216
19      85.1528 1 2 100 -447.052 3.70431
20      85.1528 1 2 100 -447.052 5.55647
21      85.1528 1 2 100 -447.052 1.12544
22      85.1528 1 2 100 -447.052 2.9776
23      85.1528 1 2 100 -447.052 4.82976
24      85.1528 1 2 100 -447.052 0.398731
25      85.1528 1 2 100 -415.12 0
26      85.1528 1 2 100 -415.12 3.06626
27      85.1528 1 2 100 -415.12 6.13251
28      85.1528 1 2 100 -415.12 2.91559
29      85.1528 1 2 100 -415.12 5.98184
30      85.1528 1 2 100 -415.12 2.76492
31      85.1528 1 2 100 -415.12 5.83117
32      85.1528 1 2 100 -415.12 2.61424
33      85.1528 1 2 100 -383.188 0
34      85.1528 1 2 100 -383.188 4.28036
35      85.1528 1 2 100 -383.188 2.27753
36      85.1528 1 2 100 -383.188 0.274701
37      85.1528 1 2 100 -383.188 4.55506
38      85.1528 1 2 100 -383.188 2.55223
39      85.1528 1 2 100 -383.188 0.549402
40      85.1528 1 2 100 -383.188 4.82976
41      85.1528 1 2 100 -351.255 0
42      85.1528 1 2 100 -351.255 5.49446
43      85.1528 1 2 100 -351.255 4.70573
44      85.1528 1 2 100 -351.255 3.917
45      85.1528 1 2 100 -351.255 3.12827
46      85.1528 1 2 100 -351.255 2.33954
47      85.1528 1 2 100 -351.255 1.55082
48      85.1528 1 2 100 -351.255 0.762088
49      85.1528 1 2 100 -319.323 0
50      85.1528 1 2 100 -319.323 0.425372
51      85.1528 1 2 100 -319.323 0.850743
52      85.1528 1 2 100 -319.323 1.27611
53      85.1528 1 2 100 -319.323 1.70149
54      85.1528 1 2 100 -319.323 2.12686
55      85.1528 1 2 100 -319.323 2.55223
56      85.1528 1 2 100 -319.323 2.9776
57      85.1528 1 2 100 -287.391 0
58      85.1528 1 2 100 -287.391 1.63947
59      85.1528 1 2 100 -287.391 3.27894
60      85.1528 1 2 100 -287.391 4.91841
61      85.1528 1 2 100 -287.391 0.274701
62      85.1528 1 2 100 -287.391 1.91417
63      85.1528 1 2 100 -287.391 3.55364
64      85.1528 1 2 100 -287.391 5.19312
65      85.1528 1 2 100 -255.458 0
66      85.1528 1 2 100 -255.458 2.85357
67      85.1528 1 2 100 -255.458 5.70714
68      85.1528 1 2 100 -255.458 2.27753
69      85.1528 1 2 100 -255.458 5.1311
70      85.1528 1 2 100 -255.458 1.70149
71      85.1528 1 2 100 -255.458 4.55506
72      85.1528 1 2 100 -255.458 1.12544
73      85.1528 1 2 100 -223.526 0
74      85.1528 1 2 100 -223.526 4.06767
75      85.1528 1 2 100 -223.526 1.85216
76      85.1528 1 2 100 -223.526 5.91983
77      85.1528 1 2 100 -223.526 3.70431
78      85.1528 1 2 100 -223.526 1.4888
79      85.1528 1 2 100 -223.526 5.55647
80      85.1528 1 2 100 -223.526 3.34096
81      85.1528 1 2 100 -191.594 0
82      85.1528 1 2 100 -191.594 5.28177
83      85.1528 1 2 100 -191.594 4.28036
84      85.1528 1 2 100 -191.594 3.27894
85      85.1528 1 2 100 -191.594 2.27753
86      85.1528 1 2 100 -191.594 1.27611
87      85.1528 1 2 100 -191.594 0.274701
88      85.1528 1 2 100 -191.594 5.55647
89      85.1528 1 2 100 -159.661 0
90      85.1528 1 2 100 -159.661 0.212686
91      85.1528 1 2 100 -159.661 0.425372
92      85.1528 1 2 100 -159.661 0.638057
93      85.1528 1 2 100 -159.661 0.850743
94      85.1528 1 2 100 -159.661 1.06343
95      85.1528 1 2 100 -159.661 1.27611
96      85.1528 1 2 100 -159.661 1.4888
97      85.1528 1 2 100 -127.729 0
98      85.1528 1 2 100 -127.729 1.42679
99      85.1528 1 2 100 -127.729 2.85357
100      85.1528 1 2 100 -127.729 4.28036
101      85.1528 1 2 100 -127.729 5.70714
102      85.1528 1 2 100 -127.729 0.850743
103      85.1528 1 2 100 -127.729 2.27753
104      85.1528 1 2 100 -127.729 3.70431
105      85.1528 1 2 100 -95.7969 0
106      85.1528 1 2 100 -95.7969 2.64089
107      85.1528 1 2 100 -95.7969 5.28177
108      85.1528 1 2 100 -95.7969 1.63947
109      85.1528 1 2 100 -95.7969 4.28036
110      85.1528 1 2 100 -95.7969 0.638057
111      85.1528 1 2 100 -95.7969 3.27894
112      85.1528 1 2 100 -95.7969 5.91983
113      85.1528 1 2 100 -63.8646 0
114      85.1528 1 2 100 -63.8646 3.85499
115      85.1528 1 2 100 -63.8646 1.42679
116      85.1528 1 2 100 -63.8646 5.28177
117      85.1528 1 2 100 -63.8646 2.85357
118      85.1528 1 2 100 -63.8646 0.425372
119      85.1528 1 2 100 -63.8646 4.28036
120      85.1528 1 2 100 -63.8646 1.85216
121      85.1528 1 2 100 -31.9323 0
122      85.1528 1 2 100 -31.9323 5.06909
123      85.1528 1 2 100 -31.9323 3.85499
124      85.1528 1 2 100 -31.9323 2.64089
125      85.1528 1 2 100 -31.9323 1.42679
126      85.1528 1 2 100 -31.9323 0.212686
127      85.1528 1 2 100 -31.9323 5.28177
128      85.1528 1 2 100 -31.9323 4.06767
129      85.1528 1 2 100 0 0
130      85.1528 1 2 100 31.9323 0
131      85.1528 1 2 100 31.9323 1.2141
132      85.1528 1 2 100 31.9323 2.4282
133      85.1528 1 2 100 31.9323 3.6423
134      85.1528 1 2 100 31.9323 4.8564
135      85.1528 1 2 100 31.9323 6.0705
136      85.1528 1 2 100 31.9323 1.00141
137      85.1528 1 2 100 31.9323 2.21551
138      85.1528 1 2 100 63.8646 0
139      85.1528 1 2 100 63.8646 2.4282
140      85.1528 1 2 100 63.8646 4.8564
141      85.1528 1 2 100 63.8646 1.00141
142      85.1528 1 2 100 63.8646 3.42961
143      85.1528 1 2 100 63.8646 5.85781
144      85.1528 1 2 100 63.8646 2.00283
145      85.1528 1 2 100 63.8646 4.43103
146      85.1528 1 2 100 95.7969 0
147      85.1528 1 2 100 95.7969 3.6423
148      85.1528 1 2 100 95.7969 1.00141
149      85.1528 1 2 100 95.7969 4.64371
150      85.1528 1 2 100 95.7969 2.00283
151      85.1528 1 2 100 95.7969 5.64513
152      85.1528 1 2 100 95.7969 3.00424
153      85.1528 1 2 100 95.7969 0.363357
154      85.1528 1 2 100 127.729 0
155      85.1528 1 2 100 127.729 4.8564
156      85.1528 1 2 100 127.729 3.42961
157      85.1528 1 2 100 127.729 2.00283
158      85.1528 1 2 100 127.729 0.576042
159      85.1528 1 2 100 127.729 5.43244
160      85.1528 1 2 100 127.729 4.00566
161      85.1528 1 2 100 127.729 2.57887
162      85.1528 1 2 100 159.661 0
163      85.1528 1 2 100 159.661 6.0705
164      85.1528 1 2 100 159.661 5.85781
165      85.1528 1 2 100 159.661 5.64513
166      85.1528 1 2 100 159.661 5.43244
167      85.1528 1 2 100 159.661 5.21976
168      85.1528 1 2 100 159.661 5.00707
169      85.1528 1 2 100 159.661 4.79438
170      85.1528 1 2 100 191.594 0
171      85.1528 1 2 100 191.594 1.00141
172      85.1528 1 2 100 191.594 2.00283
173      85.1528 1 2 100 191.594 3.00424
174      85.1528 1 2 100 191.594 4.00566
175      85.1528 1 2 100 191.594 5.00707
176      85.1528 1 2 100 191.594 6.00848
177      85.1528 1 2 100 191.594 0.726713
178      85.1528 1 2 100 223.526 0
179      85.1528 1 2 100 223.526 2.21551
180      85.1528 1 2 100 223.526 4.43103
181      85.1528 1 2 100 223.526 0.363357
182      85.1528 1 2 100 223.526 2.57887
183      85.1528 1 2 100 223.526 4.79438
184      85.1528 1 2 100 223.526 0.726713
185      85.1528 1 2 100 223.526 2.94223
186      85.1528 1 2 100 255.458 0
187      85.1528 1 2 100 255.458 3.42961
188      85.1528 1 2 100 255.458 0.576042
189      85.1528 1 2 100 255.458 4.00566
190      85.1528 1 2 100 255.458 1.15208
191      85.1528 1 2 100 255.458 4.5817
192      85.1528 1 2 100 255.458 1.72813
193      85.1528 1 2 100 255.458 5.15774
194      85.1528 1 2 100 287.391 0
195      85.1528 1 2 100 287.391 4.64371
196      85.1528 1 2 100 287.391 3.00424
197      85.1528 1 2 100 287.391 1.36477
198      85.1528 1 2 100 287.391 6.00848
199      85.1528 1 2 100 287.391 4.36901
200      85.1528 1 2 100 287.391 2.72954
201      85.1528 1 2 100 287.391 1.09007
202      85.1528 1 2 100 319.323 0
203      85.1528 1 2 100 319.323 5.85781
204      85.1528 1 2 100 319.323 5.43244
205      85.1528 1 2 100 319.323 5.00707
206      85.1528 1 2 100 319.323 4.5817
207      85.1528 1 2 100 319.323 4.15633
208      85.1528 1 2 100 319.323 3.73096
209      85.1528 1 2 100 319.323 3.30558
210      85.1528 1 2 100 351.255 0
211      85.1528 1 2 100 351.255 0.788728
212      85.1528 1 2 100 351.255 1.57746
213      85.1528 1 2 100 351.255 2.36618
214      85.1528 1 2 100 351.255 3.15491
215      85.1528 1 2 100 351.255 3.94364
216      85.1528 1 2 100 351.255 4.73237
217      85.1528 1 2 100 351.255 5.5211
218      85.1528 1 2 100 383.188 0
219      85.1528 1 2 100 383.188 2.00283
220      85.1528 1 2 100 383.188 4.00566
221      85.1528 1 2 100 383.188 6.00848
222      85.1528 1 2 100 383.188 1.72813
223      85.1528 1 2 100 383.188 3.73096
224      85.1528 1 2 100 383.188 5.73378
225      85.1528 1 2 100 383.188 1.45343
226      85.1528 1 2 100 415.12 0
227      85.1528 1 2 100 415.12 3.21693
228      85.1528 1 2 100 415.12 0.150671
229      85.1528 1 2 100 415.12 3.3676
230      85.1528 1 2 100 415.12 0.301342
231      85.1528 1 2 100 415.12 3.51827
232      85.1528 1 2 100 415.12 0.452012
233      85.1528 1 2 100 415.12 3.66894
234      85.1528 1 2 100 447.052 0
235      85.1528 1 2 100 447.052 4.43103
236      85.1528 1 2 100 447.052 2.57887
237      85.1528 1 2 100 447.052 0.726713
238      85.1528 1 2 100 447.052 5.15774
239      85.1528 1 2 100 447.052 3.30558
240      85.1528 1 2 100 447.052 1.45343
241      85.1528 1 2 100 447.052 5.88445
242      85.1528 1 2 100 478.984 0
243      85.1528 1 2 100 478.984 5.64513
244      85.1528 1 2 100 478.984 5.00707
245      85.1528 1 2 100 478.984 4.36901
246      85.1528 1 2 100 478.984 3.73096
247      85.1528 1 2 100 478.984 3.0929
248      85.1528 1 2 100 478.984 2.45484
249      85.1528 1 2 100 478.984 1.81678
250      85.1528 1 2 100 510.917 0
251      85.1528 1 2 100 510.917 0.576042
252      85.1528 1 2 100 510.917 1.15208
253      85.1528 1 2 100 510.917 1.72813
254      85.1528 1 2 100 510.917 2.30417
255      85.1528 1 2 100 510.917 2.88021
256      85.1528 1 2 100 510.917 3.45625
257      85.1528 1 2 100 510.917 4.0323

# Format of trapezoid gradients:
# id amplitude rise flat fall delay
# ..      Hz/m   us   us   us    us
[TRAP]
 1  1.36243e+06 250 4000 250   0

# Format of ADC events:
# id num dwell delay freq phase
# ..  ..    ns    us   Hz   rad
[ADC]
1 1 1000000 0 0 0

# Format of delays:
# id delay (us)
[DELAYS]
1 12000000
2 2400000
3 1000
4 10000

# Sequence Shapes
[SHAPES]

shape_id 1
num_samples 100030
1
0
0
99997
-1
0
0
27

shape_id 2
num_samples 100030
0
0
100028

