# Pulseq sequence file
# Created by MATLAB mr toolbox

[VERSION]
major 1
minor 3
revision 0

[DEFINITIONS]
offsets_ppm -1560 -6 -5.5 -5 -4.5 -4 -3.5 -3 -2.5 -2 -1.5 -1 -0.5 0 0.5 1 1.5 2 2.5 3 3.5 4 4.5 5 5.5 6 
run_m0_scan 0 

# Format of blocks:
#  #  D RF  GX  GY  GZ ADC EXT
[BLOCKS]
   1  1  0   0   0   0  0  0
   2  0  1   0   0   0  0  0
   3  2  0   0   0   0  0  0
   4  0  2   0   0   0  0  0
   5  2  0   0   0   0  0  0
   6  0  3   0   0   0  0  0
   7  2  0   0   0   0  0  0
   8  0  4   0   0   0  0  0
   9  2  0   0   0   0  0  0
  10  0  5   0   0   0  0  0
  11  2  0   0   0   0  0  0
  12  0  6   0   0   0  0  0
  13  2  0   0   0   0  0  0
  14  0  7   0   0   0  0  0
  15  2  0   0   0   0  0  0
  16  0  8   0   0   0  0  0
  17  2  0   0   0   0  0  0
  18  0  9   0   0   0  0  0
  19  2  0   0   0   0  0  0
  20  0 10   0   0   0  0  0
  21  2  0   0   0   0  0  0
  22  0 11   0   0   0  0  0
  23  2  0   0   0   0  0  0
  24  0 12   0   0   0  0  0
  25  2  0   0   0   0  0  0
  26  0 13   0   0   0  0  0
  27  2  0   0   0   0  0  0
  28  0 14   0   0   0  0  0
  29  2  0   0   0   0  0  0
  30  0 15   0   0   0  0  0
  31  2  0   0   0   0  0  0
  32  0 16   0   0   0  0  0
  33  2  0   0   0   0  0  0
  34  0 17   0   0   0  0  0
  35  2  0   0   0   0  0  0
  36  0 18   0   0   0  0  0
  37  2  0   0   0   0  0  0
  38  0 19   0   0   0  0  0
  39  2  0   0   0   0  0  0
  40  0 20   0   0   0  0  0
  41  2  0   0   0   0  0  0
  42  0 21   0   0   0  0  0
  43  2  0   0   0   0  0  0
  44  0 22   0   0   0  0  0
  45  2  0   0   0   0  0  0
  46  0 23   0   0   0  0  0
  47  2  0   0   0   0  0  0
  48  0 24   0   0   0  0  0
  49  2  0   0   0   0  0  0
  50  0 25   0   0   0  0  0
  51  2  0   0   0   0  0  0
  52  0 26   0   0   0  0  0
  53  2  0   0   0   0  0  0
  54  0 27   0   0   0  0  0
  55  2  0   0   0   0  0  0
  56  0 28   0   0   0  0  0
  57  2  0   0   0   0  0  0
  58  0 29   0   0   0  0  0
  59  2  0   0   0   0  0  0
  60  0 30   0   0   0  0  0
  61  2  0   0   0   0  0  0
  62  0 31   0   0   0  0  0
  63  2  0   0   0   0  0  0
  64  0 32   0   0   0  0  0
  65  2  0   0   0   0  0  0
  66  0 33   0   0   0  0  0
  67  2  0   0   0   0  0  0
  68  0 34   0   0   0  0  0
  69  2  0   0   0   0  0  0
  70  0 35   0   0   0  0  0
  71  2  0   0   0   0  0  0
  72  0 36   0   0   0  0  0
  73  2  0   0   0   0  0  0
  74  0 37   0   0   0  0  0
  75  2  0   0   0   0  0  0
  76  0 38   0   0   0  0  0
  77  2  0   0   0   0  0  0
  78  0 39   0   0   0  0  0
  79  2  0   0   0   0  0  0
  80  0 40   0   0   0  0  0
  81  0  0   1   1   1  0  0
  82  0  0   0   0   0  1  0
  83  1  0   0   0   0  0  0
  84  0 41   0   0   0  0  0
  85  2  0   0   0   0  0  0
  86  0 42   0   0   0  0  0
  87  2  0   0   0   0  0  0
  88  0 43   0   0   0  0  0
  89  2  0   0   0   0  0  0
  90  0 44   0   0   0  0  0
  91  2  0   0   0   0  0  0
  92  0 45   0   0   0  0  0
  93  2  0   0   0   0  0  0
  94  0 46   0   0   0  0  0
  95  2  0   0   0   0  0  0
  96  0 47   0   0   0  0  0
  97  2  0   0   0   0  0  0
  98  0 48   0   0   0  0  0
  99  2  0   0   0   0  0  0
 100  0 49   0   0   0  0  0
 101  2  0   0   0   0  0  0
 102  0 50   0   0   0  0  0
 103  2  0   0   0   0  0  0
 104  0 51   0   0   0  0  0
 105  2  0   0   0   0  0  0
 106  0 52   0   0   0  0  0
 107  2  0   0   0   0  0  0
 108  0 53   0   0   0  0  0
 109  2  0   0   0   0  0  0
 110  0 54   0   0   0  0  0
 111  2  0   0   0   0  0  0
 112  0 55   0   0   0  0  0
 113  2  0   0   0   0  0  0
 114  0 56   0   0   0  0  0
 115  2  0   0   0   0  0  0
 116  0 57   0   0   0  0  0
 117  2  0   0   0   0  0  0
 118  0 58   0   0   0  0  0
 119  2  0   0   0   0  0  0
 120  0 59   0   0   0  0  0
 121  2  0   0   0   0  0  0
 122  0 60   0   0   0  0  0
 123  2  0   0   0   0  0  0
 124  0 61   0   0   0  0  0
 125  2  0   0   0   0  0  0
 126  0 62   0   0   0  0  0
 127  2  0   0   0   0  0  0
 128  0 63   0   0   0  0  0
 129  2  0   0   0   0  0  0
 130  0 64   0   0   0  0  0
 131  2  0   0   0   0  0  0
 132  0 65   0   0   0  0  0
 133  2  0   0   0   0  0  0
 134  0 66   0   0   0  0  0
 135  2  0   0   0   0  0  0
 136  0 67   0   0   0  0  0
 137  2  0   0   0   0  0  0
 138  0 68   0   0   0  0  0
 139  2  0   0   0   0  0  0
 140  0 69   0   0   0  0  0
 141  2  0   0   0   0  0  0
 142  0 70   0   0   0  0  0
 143  2  0   0   0   0  0  0
 144  0 71   0   0   0  0  0
 145  2  0   0   0   0  0  0
 146  0 72   0   0   0  0  0
 147  2  0   0   0   0  0  0
 148  0 73   0   0   0  0  0
 149  2  0   0   0   0  0  0
 150  0 74   0   0   0  0  0
 151  2  0   0   0   0  0  0
 152  0 75   0   0   0  0  0
 153  2  0   0   0   0  0  0
 154  0 76   0   0   0  0  0
 155  2  0   0   0   0  0  0
 156  0 77   0   0   0  0  0
 157  2  0   0   0   0  0  0
 158  0 78   0   0   0  0  0
 159  2  0   0   0   0  0  0
 160  0 79   0   0   0  0  0
 161  2  0   0   0   0  0  0
 162  0 80   0   0   0  0  0
 163  0  0   1   1   1  0  0
 164  0  0   0   0   0  1  0
 165  1  0   0   0   0  0  0
 166  0 81   0   0   0  0  0
 167  2  0   0   0   0  0  0
 168  0 82   0   0   0  0  0
 169  2  0   0   0   0  0  0
 170  0 83   0   0   0  0  0
 171  2  0   0   0   0  0  0
 172  0 84   0   0   0  0  0
 173  2  0   0   0   0  0  0
 174  0 85   0   0   0  0  0
 175  2  0   0   0   0  0  0
 176  0 86   0   0   0  0  0
 177  2  0   0   0   0  0  0
 178  0 87   0   0   0  0  0
 179  2  0   0   0   0  0  0
 180  0 88   0   0   0  0  0
 181  2  0   0   0   0  0  0
 182  0 89   0   0   0  0  0
 183  2  0   0   0   0  0  0
 184  0 90   0   0   0  0  0
 185  2  0   0   0   0  0  0
 186  0 91   0   0   0  0  0
 187  2  0   0   0   0  0  0
 188  0 92   0   0   0  0  0
 189  2  0   0   0   0  0  0
 190  0 93   0   0   0  0  0
 191  2  0   0   0   0  0  0
 192  0 94   0   0   0  0  0
 193  2  0   0   0   0  0  0
 194  0 95   0   0   0  0  0
 195  2  0   0   0   0  0  0
 196  0 96   0   0   0  0  0
 197  2  0   0   0   0  0  0
 198  0 97   0   0   0  0  0
 199  2  0   0   0   0  0  0
 200  0 98   0   0   0  0  0
 201  2  0   0   0   0  0  0
 202  0 99   0   0   0  0  0
 203  2  0   0   0   0  0  0
 204  0 100   0   0   0  0  0
 205  2  0   0   0   0  0  0
 206  0 101   0   0   0  0  0
 207  2  0   0   0   0  0  0
 208  0 102   0   0   0  0  0
 209  2  0   0   0   0  0  0
 210  0 103   0   0   0  0  0
 211  2  0   0   0   0  0  0
 212  0 104   0   0   0  0  0
 213  2  0   0   0   0  0  0
 214  0 105   0   0   0  0  0
 215  2  0   0   0   0  0  0
 216  0 106   0   0   0  0  0
 217  2  0   0   0   0  0  0
 218  0 107   0   0   0  0  0
 219  2  0   0   0   0  0  0
 220  0 108   0   0   0  0  0
 221  2  0   0   0   0  0  0
 222  0 109   0   0   0  0  0
 223  2  0   0   0   0  0  0
 224  0 110   0   0   0  0  0
 225  2  0   0   0   0  0  0
 226  0 111   0   0   0  0  0
 227  2  0   0   0   0  0  0
 228  0 112   0   0   0  0  0
 229  2  0   0   0   0  0  0
 230  0 113   0   0   0  0  0
 231  2  0   0   0   0  0  0
 232  0 114   0   0   0  0  0
 233  2  0   0   0   0  0  0
 234  0 115   0   0   0  0  0
 235  2  0   0   0   0  0  0
 236  0 116   0   0   0  0  0
 237  2  0   0   0   0  0  0
 238  0 117   0   0   0  0  0
 239  2  0   0   0   0  0  0
 240  0 118   0   0   0  0  0
 241  2  0   0   0   0  0  0
 242  0 119   0   0   0  0  0
 243  2  0   0   0   0  0  0
 244  0 120   0   0   0  0  0
 245  0  0   1   1   1  0  0
 246  0  0   0   0   0  1  0
 247  1  0   0   0   0  0  0
 248  0 121   0   0   0  0  0
 249  2  0   0   0   0  0  0
 250  0 122   0   0   0  0  0
 251  2  0   0   0   0  0  0
 252  0 123   0   0   0  0  0
 253  2  0   0   0   0  0  0
 254  0 124   0   0   0  0  0
 255  2  0   0   0   0  0  0
 256  0 125   0   0   0  0  0
 257  2  0   0   0   0  0  0
 258  0 126   0   0   0  0  0
 259  2  0   0   0   0  0  0
 260  0 127   0   0   0  0  0
 261  2  0   0   0   0  0  0
 262  0 128   0   0   0  0  0
 263  2  0   0   0   0  0  0
 264  0 129   0   0   0  0  0
 265  2  0   0   0   0  0  0
 266  0 130   0   0   0  0  0
 267  2  0   0   0   0  0  0
 268  0 131   0   0   0  0  0
 269  2  0   0   0   0  0  0
 270  0 132   0   0   0  0  0
 271  2  0   0   0   0  0  0
 272  0 133   0   0   0  0  0
 273  2  0   0   0   0  0  0
 274  0 134   0   0   0  0  0
 275  2  0   0   0   0  0  0
 276  0 135   0   0   0  0  0
 277  2  0   0   0   0  0  0
 278  0 136   0   0   0  0  0
 279  2  0   0   0   0  0  0
 280  0 137   0   0   0  0  0
 281  2  0   0   0   0  0  0
 282  0 138   0   0   0  0  0
 283  2  0   0   0   0  0  0
 284  0 139   0   0   0  0  0
 285  2  0   0   0   0  0  0
 286  0 140   0   0   0  0  0
 287  2  0   0   0   0  0  0
 288  0 141   0   0   0  0  0
 289  2  0   0   0   0  0  0
 290  0 142   0   0   0  0  0
 291  2  0   0   0   0  0  0
 292  0 143   0   0   0  0  0
 293  2  0   0   0   0  0  0
 294  0 144   0   0   0  0  0
 295  2  0   0   0   0  0  0
 296  0 145   0   0   0  0  0
 297  2  0   0   0   0  0  0
 298  0 146   0   0   0  0  0
 299  2  0   0   0   0  0  0
 300  0 147   0   0   0  0  0
 301  2  0   0   0   0  0  0
 302  0 148   0   0   0  0  0
 303  2  0   0   0   0  0  0
 304  0 149   0   0   0  0  0
 305  2  0   0   0   0  0  0
 306  0 150   0   0   0  0  0
 307  2  0   0   0   0  0  0
 308  0 151   0   0   0  0  0
 309  2  0   0   0   0  0  0
 310  0 152   0   0   0  0  0
 311  2  0   0   0   0  0  0
 312  0 153   0   0   0  0  0
 313  2  0   0   0   0  0  0
 314  0 154   0   0   0  0  0
 315  2  0   0   0   0  0  0
 316  0 155   0   0   0  0  0
 317  2  0   0   0   0  0  0
 318  0 156   0   0   0  0  0
 319  2  0   0   0   0  0  0
 320  0 157   0   0   0  0  0
 321  2  0   0   0   0  0  0
 322  0 158   0   0   0  0  0
 323  2  0   0   0   0  0  0
 324  0 159   0   0   0  0  0
 325  2  0   0   0   0  0  0
 326  0 160   0   0   0  0  0
 327  0  0   1   1   1  0  0
 328  0  0   0   0   0  1  0
 329  1  0   0   0   0  0  0
 330  0 161   0   0   0  0  0
 331  2  0   0   0   0  0  0
 332  0 162   0   0   0  0  0
[RF]
1      171.004 1 2 100 -199258 0
2      171.004 1 2 100 -199258 2.02103
3      171.004 1 2 100 -199258 4.04207
4      171.004 1 2 100 -199258 6.0631
5      171.004 1 2 100 -199258 1.80095
6      171.004 1 2 100 -199258 3.82198
7      171.004 1 2 100 -199258 5.84302
8      171.004 1 2 100 -199258 1.58087
9      171.004 1 2 100 -199258 3.6019
10      171.004 1 2 100 -199258 5.62294
11      171.004 1 2 100 -199258 1.36078
12      171.004 1 2 100 -199258 3.38182
13      171.004 1 2 100 -199258 5.40285
14      171.004 1 2 100 -199258 1.1407
15      171.004 1 2 100 -199258 3.16173
16      171.004 1 2 100 -199258 5.18277
17      171.004 1 2 100 -199258 0.920618
18      171.004 1 2 100 -199258 2.94165
19      171.004 1 2 100 -199258 4.96269
20      171.004 1 2 100 -199258 0.700534
21      171.004 1 2 100 -199258 2.72157
22      171.004 1 2 100 -199258 4.7426
23      171.004 1 2 100 -199258 0.480451
24      171.004 1 2 100 -199258 2.50148
25      171.004 1 2 100 -199258 4.52252
26      171.004 1 2 100 -199258 0.260368
27      171.004 1 2 100 -199258 2.2814
28      171.004 1 2 100 -199258 4.30244
29      171.004 1 2 100 -199258 0.0402844
30      171.004 1 2 100 -199258 2.06132
31      171.004 1 2 100 -199258 4.08235
32      171.004 1 2 100 -199258 6.10339
33      171.004 1 2 100 -199258 1.84124
34      171.004 1 2 100 -199258 3.86227
35      171.004 1 2 100 -199258 5.8833
36      171.004 1 2 100 -199258 1.62115
37      171.004 1 2 100 -199258 3.64219
38      171.004 1 2 100 -199258 5.66322
39      171.004 1 2 100 -199258 1.40107
40      171.004 1 2 100 -199258 3.4221
41      171.004 1 2 100 -766.375 0
42      171.004 1 2 100 -766.375 4.28517
43      171.004 1 2 100 -766.375 2.28716
44      171.004 1 2 100 -766.375 0.289147
45      171.004 1 2 100 -766.375 4.57432
46      171.004 1 2 100 -766.375 2.57631
47      171.004 1 2 100 -766.375 0.578293
48      171.004 1 2 100 -766.375 4.86347
49      171.004 1 2 100 -766.375 2.86545
50      171.004 1 2 100 -766.375 0.86744
51      171.004 1 2 100 -766.375 5.15261
52      171.004 1 2 100 -766.375 3.1546
53      171.004 1 2 100 -766.375 1.15659
54      171.004 1 2 100 -766.375 5.44176
55      171.004 1 2 100 -766.375 3.44375
56      171.004 1 2 100 -766.375 1.44573
57      171.004 1 2 100 -766.375 5.73091
58      171.004 1 2 100 -766.375 3.73289
59      171.004 1 2 100 -766.375 1.73488
60      171.004 1 2 100 -766.375 6.02005
61      171.004 1 2 100 -766.375 4.02204
62      171.004 1 2 100 -766.375 2.02403
63      171.004 1 2 100 -766.375 0.026014
64      171.004 1 2 100 -766.375 4.31119
65      171.004 1 2 100 -766.375 2.31317
66      171.004 1 2 100 -766.375 0.315161
67      171.004 1 2 100 -766.375 4.60033
68      171.004 1 2 100 -766.375 2.60232
69      171.004 1 2 100 -766.375 0.604307
70      171.004 1 2 100 -766.375 4.88948
71      171.004 1 2 100 -766.375 2.89147
72      171.004 1 2 100 -766.375 0.893454
73      171.004 1 2 100 -766.375 5.17863
74      171.004 1 2 100 -766.375 3.18061
75      171.004 1 2 100 -766.375 1.1826
76      171.004 1 2 100 -766.375 5.46777
77      171.004 1 2 100 -766.375 3.46976
78      171.004 1 2 100 -766.375 1.47175
79      171.004 1 2 100 -766.375 5.75692
80      171.004 1 2 100 -766.375 3.75891
81      171.004 1 2 100 -702.511 0
82      171.004 1 2 100 -702.511 5.49887
83      171.004 1 2 100 -702.511 4.71456
84      171.004 1 2 100 -702.511 3.93024
85      171.004 1 2 100 -702.511 3.14593
86      171.004 1 2 100 -702.511 2.36161
87      171.004 1 2 100 -702.511 1.5773
88      171.004 1 2 100 -702.511 0.792986
89      171.004 1 2 100 -702.511 0.00867133
90      171.004 1 2 100 -702.511 5.50754
91      171.004 1 2 100 -702.511 4.72323
92      171.004 1 2 100 -702.511 3.93891
93      171.004 1 2 100 -702.511 3.1546
94      171.004 1 2 100 -702.511 2.37029
95      171.004 1 2 100 -702.511 1.58597
96      171.004 1 2 100 -702.511 0.801657
97      171.004 1 2 100 -702.511 0.0173427
98      171.004 1 2 100 -702.511 5.51621
99      171.004 1 2 100 -702.511 4.7319
100      171.004 1 2 100 -702.511 3.94759
101      171.004 1 2 100 -702.511 3.16327
102      171.004 1 2 100 -702.511 2.37896
103      171.004 1 2 100 -702.511 1.59464
104      171.004 1 2 100 -702.511 0.810328
105      171.004 1 2 100 -702.511 0.026014
106      171.004 1 2 100 -702.511 5.52489
107      171.004 1 2 100 -702.511 4.74057
108      171.004 1 2 100 -702.511 3.95626
109      171.004 1 2 100 -702.511 3.17194
110      171.004 1 2 100 -702.511 2.38763
111      171.004 1 2 100 -702.511 1.60331
112      171.004 1 2 100 -702.511 0.819
113      171.004 1 2 100 -702.511 0.0346853
114      171.004 1 2 100 -702.511 5.53356
115      171.004 1 2 100 -702.511 4.74924
116      171.004 1 2 100 -702.511 3.96493
117      171.004 1 2 100 -702.511 3.18061
118      171.004 1 2 100 -702.511 2.3963
119      171.004 1 2 100 -702.511 1.61199
120      171.004 1 2 100 -702.511 0.827671
121      171.004 1 2 100 -638.646 0
122      171.004 1 2 100 -638.646 0.429384
123      171.004 1 2 100 -638.646 0.858769
124      171.004 1 2 100 -638.646 1.28815
125      171.004 1 2 100 -638.646 1.71754
126      171.004 1 2 100 -638.646 2.14692
127      171.004 1 2 100 -638.646 2.57631
128      171.004 1 2 100 -638.646 3.00569
129      171.004 1 2 100 -638.646 3.43508
130      171.004 1 2 100 -638.646 3.86446
131      171.004 1 2 100 -638.646 4.29384
132      171.004 1 2 100 -638.646 4.72323
133      171.004 1 2 100 -638.646 5.15261
134      171.004 1 2 100 -638.646 5.582
135      171.004 1 2 100 -638.646 6.01138
136      171.004 1 2 100 -638.646 0.15758
137      171.004 1 2 100 -638.646 0.586965
138      171.004 1 2 100 -638.646 1.01635
139      171.004 1 2 100 -638.646 1.44573
140      171.004 1 2 100 -638.646 1.87512
141      171.004 1 2 100 -638.646 2.3045
142      171.004 1 2 100 -638.646 2.73389
143      171.004 1 2 100 -638.646 3.16327
144      171.004 1 2 100 -638.646 3.59266
145      171.004 1 2 100 -638.646 4.02204
146      171.004 1 2 100 -638.646 4.45142
147      171.004 1 2 100 -638.646 4.88081
148      171.004 1 2 100 -638.646 5.31019
149      171.004 1 2 100 -638.646 5.73958
150      171.004 1 2 100 -638.646 6.16896
151      171.004 1 2 100 -638.646 0.315161
152      171.004 1 2 100 -638.646 0.744545
153      171.004 1 2 100 -638.646 1.17393
154      171.004 1 2 100 -638.646 1.60331
155      171.004 1 2 100 -638.646 2.0327
156      171.004 1 2 100 -638.646 2.46208
157      171.004 1 2 100 -638.646 2.89147
158      171.004 1 2 100 -638.646 3.32085
159      171.004 1 2 100 -638.646 3.75024
160      171.004 1 2 100 -638.646 4.17962
161      171.004 1 2 100 -574.781 0
162      171.004 1 2 100 -574.781 1.64308
163      171.004 1 2 100 -574.781 3.28617
164      171.004 1 2 100 -574.781 4.92925
165      171.004 1 2 100 -574.781 0.289147
166      171.004 1 2 100 -574.781 1.93223
167      171.004 1 2 100 -574.781 3.57531
168      171.004 1 2 100 -574.781 5.2184
169      171.004 1 2 100 -574.781 0.578293
170      171.004 1 2 100 -574.781 2.22138
171      171.004 1 2 100 -574.781 3.86446
172      171.004 1 2 100 -574.781 5.50754
173      171.004 1 2 100 -574.781 0.86744
174      171.004 1 2 100 -574.781 2.51052
175      171.004 1 2 100 -574.781 4.15361
176      171.004 1 2 100 -574.781 5.79669
177      171.004 1 2 100 -574.781 1.15659
178      171.004 1 2 100 -574.781 2.79967
179      171.004 1 2 100 -574.781 4.44275
180      171.004 1 2 100 -574.781 6.08584
181      171.004 1 2 100 -574.781 1.44573
182      171.004 1 2 100 -574.781 3.08882
183      171.004 1 2 100 -574.781 4.7319
184      171.004 1 2 100 -574.781 0.0917972
185      171.004 1 2 100 -574.781 1.73488
186      171.004 1 2 100 -574.781 3.37796
187      171.004 1 2 100 -574.781 5.02105
188      171.004 1 2 100 -574.781 0.380944
189      171.004 1 2 100 -574.781 2.02403
190      171.004 1 2 100 -574.781 3.66711
191      171.004 1 2 100 -574.781 5.31019
192      171.004 1 2 100 -574.781 0.670091
193      171.004 1 2 100 -574.781 2.31317
194      171.004 1 2 100 -574.781 3.95626
195      171.004 1 2 100 -574.781 5.59934
196      171.004 1 2 100 -574.781 0.959237
197      171.004 1 2 100 -574.781 2.60232
198      171.004 1 2 100 -574.781 4.2454
199      171.004 1 2 100 -574.781 5.88849
200      171.004 1 2 100 -574.781 1.24838
201      171.004 1 2 100 -510.917 0
202      171.004 1 2 100 -510.917 2.85678
203      171.004 1 2 100 -510.917 5.71356
204      171.004 1 2 100 -510.917 2.28716
205      171.004 1 2 100 -510.917 5.14394
206      171.004 1 2 100 -510.917 1.71754
207      171.004 1 2 100 -510.917 4.57432
208      171.004 1 2 100 -510.917 1.14792
209      171.004 1 2 100 -510.917 4.0047
210      171.004 1 2 100 -510.917 0.578293
211      171.004 1 2 100 -510.917 3.43508
212      171.004 1 2 100 -510.917 0.00867133
213      171.004 1 2 100 -510.917 2.86545
214      171.004 1 2 100 -510.917 5.72223
215      171.004 1 2 100 -510.917 2.29583
216      171.004 1 2 100 -510.917 5.15261
217      171.004 1 2 100 -510.917 1.72621
218      171.004 1 2 100 -510.917 4.58299
219      171.004 1 2 100 -510.917 1.15659
220      171.004 1 2 100 -510.917 4.01337
221      171.004 1 2 100 -510.917 0.586965
222      171.004 1 2 100 -510.917 3.44375
223      171.004 1 2 100 -510.917 0.0173427
224      171.004 1 2 100 -510.917 2.87412
225      171.004 1 2 100 -510.917 5.73091
226      171.004 1 2 100 -510.917 2.3045
227      171.004 1 2 100 -510.917 5.16128
228      171.004 1 2 100 -510.917 1.73488
229      171.004 1 2 100 -510.917 4.59166
230      171.004 1 2 100 -510.917 1.16526
231      171.004 1 2 100 -510.917 4.02204
232      171.004 1 2 100 -510.917 0.595636
233      171.004 1 2 100 -510.917 3.45242
234      171.004 1 2 100 -510.917 0.026014
235      171.004 1 2 100 -510.917 2.8828
236      171.004 1 2 100 -510.917 5.73958
237      171.004 1 2 100 -510.917 2.31317
238      171.004 1 2 100 -510.917 5.16996
239      171.004 1 2 100 -510.917 1.74355
240      171.004 1 2 100 -510.917 4.60033
241      171.004 1 2 100 -447.052 0
242      171.004 1 2 100 -447.052 4.07048
243      171.004 1 2 100 -447.052 1.85778
244      171.004 1 2 100 -447.052 5.92826
245      171.004 1 2 100 -447.052 3.71555
246      171.004 1 2 100 -447.052 1.50285
247      171.004 1 2 100 -447.052 5.57333
248      171.004 1 2 100 -447.052 3.36062
249      171.004 1 2 100 -447.052 1.14792
250      171.004 1 2 100 -447.052 5.2184
251      171.004 1 2 100 -447.052 3.00569
252      171.004 1 2 100 -447.052 0.792986
253      171.004 1 2 100 -447.052 4.86347
254      171.004 1 2 100 -447.052 2.65076
255      171.004 1 2 100 -447.052 0.438056
256      171.004 1 2 100 -447.052 4.50854
257      171.004 1 2 100 -447.052 2.29583
258      171.004 1 2 100 -447.052 0.0831258
259      171.004 1 2 100 -447.052 4.15361
260      171.004 1 2 100 -447.052 1.9409
261      171.004 1 2 100 -447.052 6.01138
262      171.004 1 2 100 -447.052 3.79868
263      171.004 1 2 100 -447.052 1.58597
264      171.004 1 2 100 -447.052 5.65645
265      171.004 1 2 100 -447.052 3.44375
266      171.004 1 2 100 -447.052 1.23104
267      171.004 1 2 100 -447.052 5.30152
268      171.004 1 2 100 -447.052 3.08882
269      171.004 1 2 100 -447.052 0.876111
270      171.004 1 2 100 -447.052 4.94659
271      171.004 1 2 100 -447.052 2.73389
272      171.004 1 2 100 -447.052 0.521182
273      171.004 1 2 100 -447.052 4.59166
274      171.004 1 2 100 -447.052 2.37896
275      171.004 1 2 100 -447.052 0.166252
276      171.004 1 2 100 -447.052 4.23673
277      171.004 1 2 100 -447.052 2.02403
278      171.004 1 2 100 -447.052 6.09451
279      171.004 1 2 100 -447.052 3.8818
280      171.004 1 2 100 -447.052 1.6691
281      171.004 1 2 100 -383.188 0
282      171.004 1 2 100 -383.188 5.28418
283      171.004 1 2 100 -383.188 4.28517
284      171.004 1 2 100 -383.188 3.28617
285      171.004 1 2 100 -383.188 2.28716
286      171.004 1 2 100 -383.188 1.28815
287      171.004 1 2 100 -383.188 0.289147
288      171.004 1 2 100 -383.188 5.57333
289      171.004 1 2 100 -383.188 4.57432
290      171.004 1 2 100 -383.188 3.57531
291      171.004 1 2 100 -383.188 2.57631
292      171.004 1 2 100 -383.188 1.5773
293      171.004 1 2 100 -383.188 0.578293
294      171.004 1 2 100 -383.188 5.86247
295      171.004 1 2 100 -383.188 4.86347
296      171.004 1 2 100 -383.188 3.86446
297      171.004 1 2 100 -383.188 2.86545
298      171.004 1 2 100 -383.188 1.86645
299      171.004 1 2 100 -383.188 0.86744
300      171.004 1 2 100 -383.188 6.15162
301      171.004 1 2 100 -383.188 5.15261
302      171.004 1 2 100 -383.188 4.15361
303      171.004 1 2 100 -383.188 3.1546
304      171.004 1 2 100 -383.188 2.15559
305      171.004 1 2 100 -383.188 1.15659
306      171.004 1 2 100 -383.188 0.15758
307      171.004 1 2 100 -383.188 5.44176
308      171.004 1 2 100 -383.188 4.44275
309      171.004 1 2 100 -383.188 3.44375
310      171.004 1 2 100 -383.188 2.44474
311      171.004 1 2 100 -383.188 1.44573
312      171.004 1 2 100 -383.188 0.446727
313      171.004 1 2 100 -383.188 5.73091
314      171.004 1 2 100 -383.188 4.7319
315      171.004 1 2 100 -383.188 3.73289
316      171.004 1 2 100 -383.188 2.73389
317      171.004 1 2 100 -383.188 1.73488
318      171.004 1 2 100 -383.188 0.735874
319      171.004 1 2 100 -383.188 6.02005
320      171.004 1 2 100 -383.188 5.02105
321      171.004 1 2 100 -319.323 0
322      171.004 1 2 100 -319.323 0.214692
323      171.004 1 2 100 -319.323 0.429384
324      171.004 1 2 100 -319.323 0.644077
325      171.004 1 2 100 -319.323 0.858769
326      171.004 1 2 100 -319.323 1.07346
327      171.004 1 2 100 -319.323 1.28815
328      171.004 1 2 100 -319.323 1.50285
329      171.004 1 2 100 -319.323 1.71754
330      171.004 1 2 100 -319.323 1.93223
331      171.004 1 2 100 -319.323 2.14692
332      171.004 1 2 100 -319.323 2.36161
333      171.004 1 2 100 -319.323 2.57631
334      171.004 1 2 100 -319.323 2.791
335      171.004 1 2 100 -319.323 3.00569
336      171.004 1 2 100 -319.323 3.22038
337      171.004 1 2 100 -319.323 3.43508
338      171.004 1 2 100 -319.323 3.64977
339      171.004 1 2 100 -319.323 3.86446
340      171.004 1 2 100 -319.323 4.07915
341      171.004 1 2 100 -319.323 4.29384
342      171.004 1 2 100 -319.323 4.50854
343      171.004 1 2 100 -319.323 4.72323
344      171.004 1 2 100 -319.323 4.93792
345      171.004 1 2 100 -319.323 5.15261
346      171.004 1 2 100 -319.323 5.3673
347      171.004 1 2 100 -319.323 5.582
348      171.004 1 2 100 -319.323 5.79669
349      171.004 1 2 100 -319.323 6.01138
350      171.004 1 2 100 -319.323 6.22607
351      171.004 1 2 100 -319.323 0.15758
352      171.004 1 2 100 -319.323 0.372273
353      171.004 1 2 100 -319.323 0.586965
354      171.004 1 2 100 -319.323 0.801657
355      171.004 1 2 100 -319.323 1.01635
356      171.004 1 2 100 -319.323 1.23104
357      171.004 1 2 100 -319.323 1.44573
358      171.004 1 2 100 -319.323 1.66043
359      171.004 1 2 100 -319.323 1.87512
360      171.004 1 2 100 -319.323 2.08981
361      171.004 1 2 100 -255.458 0
362      171.004 1 2 100 -255.458 1.42839
363      171.004 1 2 100 -255.458 2.85678
364      171.004 1 2 100 -255.458 4.28517
365      171.004 1 2 100 -255.458 5.71356
366      171.004 1 2 100 -255.458 0.858769
367      171.004 1 2 100 -255.458 2.28716
368      171.004 1 2 100 -255.458 3.71555
369      171.004 1 2 100 -255.458 5.14394
370      171.004 1 2 100 -255.458 0.289147
371      171.004 1 2 100 -255.458 1.71754
372      171.004 1 2 100 -255.458 3.14593
373      171.004 1 2 100 -255.458 4.57432
374      171.004 1 2 100 -255.458 6.00271
375      171.004 1 2 100 -255.458 1.14792
376      171.004 1 2 100 -255.458 2.57631
377      171.004 1 2 100 -255.458 4.0047
378      171.004 1 2 100 -255.458 5.43309
379      171.004 1 2 100 -255.458 0.578293
380      171.004 1 2 100 -255.458 2.00668
381      171.004 1 2 100 -255.458 3.43508
382      171.004 1 2 100 -255.458 4.86347
383      171.004 1 2 100 -255.458 0.00867133
384      171.004 1 2 100 -255.458 1.43706
385      171.004 1 2 100 -255.458 2.86545
386      171.004 1 2 100 -255.458 4.29384
387      171.004 1 2 100 -255.458 5.72223
388      171.004 1 2 100 -255.458 0.86744
389      171.004 1 2 100 -255.458 2.29583
390      171.004 1 2 100 -255.458 3.72422
391      171.004 1 2 100 -255.458 5.15261
392      171.004 1 2 100 -255.458 0.297818
393      171.004 1 2 100 -255.458 1.72621
394      171.004 1 2 100 -255.458 3.1546
395      171.004 1 2 100 -255.458 4.58299
396      171.004 1 2 100 -255.458 6.01138
397      171.004 1 2 100 -255.458 1.15659
398      171.004 1 2 100 -255.458 2.58498
399      171.004 1 2 100 -255.458 4.01337
400      171.004 1 2 100 -255.458 5.44176
401      171.004 1 2 100 -191.594 0
402      171.004 1 2 100 -191.594 2.64209
403      171.004 1 2 100 -191.594 5.28418
404      171.004 1 2 100 -191.594 1.64308
405      171.004 1 2 100 -191.594 4.28517
406      171.004 1 2 100 -191.594 0.644077
407      171.004 1 2 100 -191.594 3.28617
408      171.004 1 2 100 -191.594 5.92826
409      171.004 1 2 100 -191.594 2.28716
410      171.004 1 2 100 -191.594 4.92925
411      171.004 1 2 100 -191.594 1.28815
412      171.004 1 2 100 -191.594 3.93024
413      171.004 1 2 100 -191.594 0.289147
414      171.004 1 2 100 -191.594 2.93124
415      171.004 1 2 100 -191.594 5.57333
416      171.004 1 2 100 -191.594 1.93223
417      171.004 1 2 100 -191.594 4.57432
418      171.004 1 2 100 -191.594 0.933223
419      171.004 1 2 100 -191.594 3.57531
420      171.004 1 2 100 -191.594 6.2174
421      171.004 1 2 100 -191.594 2.57631
422      171.004 1 2 100 -191.594 5.2184
423      171.004 1 2 100 -191.594 1.5773
424      171.004 1 2 100 -191.594 4.21939
425      171.004 1 2 100 -191.594 0.578293
426      171.004 1 2 100 -191.594 3.22038
427      171.004 1 2 100 -191.594 5.86247
428      171.004 1 2 100 -191.594 2.22138
429      171.004 1 2 100 -191.594 4.86347
430      171.004 1 2 100 -191.594 1.22237
431      171.004 1 2 100 -191.594 3.86446
432      171.004 1 2 100 -191.594 0.223364
433      171.004 1 2 100 -191.594 2.86545
434      171.004 1 2 100 -191.594 5.50754
435      171.004 1 2 100 -191.594 1.86645
436      171.004 1 2 100 -191.594 4.50854
437      171.004 1 2 100 -191.594 0.86744
438      171.004 1 2 100 -191.594 3.50953
439      171.004 1 2 100 -191.594 6.15162
440      171.004 1 2 100 -191.594 2.51052
441      171.004 1 2 100 -127.729 0
442      171.004 1 2 100 -127.729 3.85579
443      171.004 1 2 100 -127.729 1.42839
444      171.004 1 2 100 -127.729 5.28418
445      171.004 1 2 100 -127.729 2.85678
446      171.004 1 2 100 -127.729 0.429384
447      171.004 1 2 100 -127.729 4.28517
448      171.004 1 2 100 -127.729 1.85778
449      171.004 1 2 100 -127.729 5.71356
450      171.004 1 2 100 -127.729 3.28617
451      171.004 1 2 100 -127.729 0.858769
452      171.004 1 2 100 -127.729 4.71456
453      171.004 1 2 100 -127.729 2.28716
454      171.004 1 2 100 -127.729 6.14295
455      171.004 1 2 100 -127.729 3.71555
456      171.004 1 2 100 -127.729 1.28815
457      171.004 1 2 100 -127.729 5.14394
458      171.004 1 2 100 -127.729 2.71654
459      171.004 1 2 100 -127.729 0.289147
460      171.004 1 2 100 -127.729 4.14493
461      171.004 1 2 100 -127.729 1.71754
462      171.004 1 2 100 -127.729 5.57333
463      171.004 1 2 100 -127.729 3.14593
464      171.004 1 2 100 -127.729 0.718531
465      171.004 1 2 100 -127.729 4.57432
466      171.004 1 2 100 -127.729 2.14692
467      171.004 1 2 100 -127.729 6.00271
468      171.004 1 2 100 -127.729 3.57531
469      171.004 1 2 100 -127.729 1.14792
470      171.004 1 2 100 -127.729 5.0037
471      171.004 1 2 100 -127.729 2.57631
472      171.004 1 2 100 -127.729 0.148909
473      171.004 1 2 100 -127.729 4.0047
474      171.004 1 2 100 -127.729 1.5773
475      171.004 1 2 100 -127.729 5.43309
476      171.004 1 2 100 -127.729 3.00569
477      171.004 1 2 100 -127.729 0.578293
478      171.004 1 2 100 -127.729 4.43408
479      171.004 1 2 100 -127.729 2.00668
480      171.004 1 2 100 -127.729 5.86247
