# Pulseq sequence file
# Created by MATLAB mr toolbox

[VERSION]
major 1
minor 3
revision 0

[DEFINITIONS]
offsets_ppm -4 -3.9 -3.8 -3.7 -3.6 -3.5 -3.4 -3.3 -3.2 -3.1 -3 -2.9 -2.8 -2.7 -2.6 -2.5 -2.4 -2.3 -2.2 -2.1 -2 -1.9 -1.8 -1.7 -1.6 -1.5 -1.4 -1.3 -1.2 -1.1 -1 -0.9 -0.8 -0.7 -0.6 -0.5 -0.4 -0.3 -0.2 -0.1 0 0.1 0.2 0.3 0.4 0.5 0.6 0.7 0.8 0.9 1 1.1 1.2 1.3 1.4 1.5 1.6 1.7 1.8 1.9 2 2.1 2.2 2.3 2.4 2.5 2.6 2.7 2.8 2.9 3 3.1 3.2 3.3 3.4 3.5 3.6 3.7 3.8 3.9 4 
run_m0_scan 1 

# Format of blocks:
#  #  D RF  GX  GY  GZ ADC EXT
[BLOCKS]
   1  1  0   0   0   0  0  0
   2  0  0   0   0   0  1  0
   3  2  0   0   0   0  0  0
   4  0  1   0   0   0  0  0
   5  0  1   0   0   0  0  0
   6  3  0   0   0   0  0  0
   7  0  2   0   0   0  0  0
   8  0  2   0   0   0  0  0
   9  3  0   0   0   0  0  0
  10  0  3   0   0   0  0  0
  11  0  3   0   0   0  0  0
  12  3  0   0   0   0  0  0
  13  0  4   0   0   0  0  0
  14  0  4   0   0   0  0  0
  15  3  0   0   0   0  0  0
  16  0  5   0   0   0  0  0
  17  0  5   0   0   0  0  0
  18  3  0   0   0   0  0  0
  19  0  6   0   0   0  0  0
  20  0  6   0   0   0  0  0
  21  3  0   0   0   0  0  0
  22  0  7   0   0   0  0  0
  23  0  7   0   0   0  0  0
  24  3  0   0   0   0  0  0
  25  0  8   0   0   0  0  0
  26  0  8   0   0   0  0  0
  27  3  0   0   0   0  0  0
  28  0  9   0   0   0  0  0
  29  0  9   0   0   0  0  0
  30  3  0   0   0   0  0  0
  31  0 10   0   0   0  0  0
  32  0 10   0   0   0  0  0
  33  3  0   0   0   0  0  0
  34  0 11   0   0   0  0  0
  35  0 11   0   0   0  0  0
  36  3  0   0   0   0  0  0
  37  0 12   0   0   0  0  0
  38  0 12   0   0   0  0  0
  39  3  0   0   0   0  0  0
  40  0 13   0   0   0  0  0
  41  0 13   0   0   0  0  0
  42  3  0   0   0   0  0  0
  43  0 14   0   0   0  0  0
  44  0 14   0   0   0  0  0
  45  3  0   0   0   0  0  0
  46  0 15   0   0   0  0  0
  47  0 15   0   0   0  0  0
  48  3  0   0   0   0  0  0
  49  0 16   0   0   0  0  0
  50  0 16   0   0   0  0  0
  51  3  0   0   0   0  0  0
  52  0 17   0   0   0  0  0
  53  0 17   0   0   0  0  0
  54  3  0   0   0   0  0  0
  55  0 18   0   0   0  0  0
  56  0 18   0   0   0  0  0
  57  3  0   0   0   0  0  0
  58  0 19   0   0   0  0  0
  59  0 19   0   0   0  0  0
  60  3  0   0   0   0  0  0
  61  0 20   0   0   0  0  0
  62  0 20   0   0   0  0  0
  63  3  0   0   0   0  0  0
  64  0 21   0   0   0  0  0
  65  0 21   0   0   0  0  0
  66  3  0   0   0   0  0  0
  67  0 22   0   0   0  0  0
  68  0 22   0   0   0  0  0
  69  3  0   0   0   0  0  0
  70  0 23   0   0   0  0  0
  71  0 23   0   0   0  0  0
  72  3  0   0   0   0  0  0
  73  0 24   0   0   0  0  0
  74  0 24   0   0   0  0  0
  75  3  0   0   0   0  0  0
  76  0 25   0   0   0  0  0
  77  0 25   0   0   0  0  0
  78  3  0   0   0   0  0  0
  79  0 26   0   0   0  0  0
  80  0 26   0   0   0  0  0
  81  3  0   0   0   0  0  0
  82  0 27   0   0   0  0  0
  83  0 27   0   0   0  0  0
  84  3  0   0   0   0  0  0
  85  0 28   0   0   0  0  0
  86  0 28   0   0   0  0  0
  87  3  0   0   0   0  0  0
  88  0 29   0   0   0  0  0
  89  0 29   0   0   0  0  0
  90  3  0   0   0   0  0  0
  91  0 30   0   0   0  0  0
  92  0 30   0   0   0  0  0
  93  3  0   0   0   0  0  0
  94  0 31   0   0   0  0  0
  95  0 31   0   0   0  0  0
  96  3  0   0   0   0  0  0
  97  0 32   0   0   0  0  0
  98  0 32   0   0   0  0  0
  99  3  0   0   0   0  0  0
 100  0 33   0   0   0  0  0
 101  0 33   0   0   0  0  0
 102  3  0   0   0   0  0  0
 103  0 34   0   0   0  0  0
 104  0 34   0   0   0  0  0
 105  3  0   0   0   0  0  0
 106  0 35   0   0   0  0  0
 107  0 35   0   0   0  0  0
 108  3  0   0   0   0  0  0
 109  0 36   0   0   0  0  0
 110  0 36   0   0   0  0  0
 111  3  0   0   0   0  0  0
 112  0 37   0   0   0  0  0
 113  0 37   0   0   0  0  0
 114  3  0   0   0   0  0  0
 115  0 38   0   0   0  0  0
 116  0 38   0   0   0  0  0
 117  3  0   0   0   0  0  0
 118  0 39   0   0   0  0  0
 119  0 39   0   0   0  0  0
 120  3  0   0   0   0  0  0
 121  0 40   0   0   0  0  0
 122  0 40   0   0   0  0  0
 123  0  0   1   1   1  0  0
 124  0  0   0   0   0  1  0
 125  2  0   0   0   0  0  0
 126  0 41   0   0   0  0  0
 127  0 41   0   0   0  0  0
 128  3  0   0   0   0  0  0
 129  0 42   0   0   0  0  0
 130  0 42   0   0   0  0  0
 131  3  0   0   0   0  0  0
 132  0 43   0   0   0  0  0
 133  0 43   0   0   0  0  0
 134  3  0   0   0   0  0  0
 135  0 44   0   0   0  0  0
 136  0 44   0   0   0  0  0
 137  3  0   0   0   0  0  0
 138  0 45   0   0   0  0  0
 139  0 45   0   0   0  0  0
 140  3  0   0   0   0  0  0
 141  0 46   0   0   0  0  0
 142  0 46   0   0   0  0  0
 143  3  0   0   0   0  0  0
 144  0 47   0   0   0  0  0
 145  0 47   0   0   0  0  0
 146  3  0   0   0   0  0  0
 147  0 48   0   0   0  0  0
 148  0 48   0   0   0  0  0
 149  3  0   0   0   0  0  0
 150  0 49   0   0   0  0  0
 151  0 49   0   0   0  0  0
 152  3  0   0   0   0  0  0
 153  0 50   0   0   0  0  0
 154  0 50   0   0   0  0  0
 155  3  0   0   0   0  0  0
 156  0 51   0   0   0  0  0
 157  0 51   0   0   0  0  0
 158  3  0   0   0   0  0  0
 159  0 52   0   0   0  0  0
 160  0 52   0   0   0  0  0
 161  3  0   0   0   0  0  0
 162  0 53   0   0   0  0  0
 163  0 53   0   0   0  0  0
 164  3  0   0   0   0  0  0
 165  0 54   0   0   0  0  0
 166  0 54   0   0   0  0  0
 167  3  0   0   0   0  0  0
 168  0 55   0   0   0  0  0
 169  0 55   0   0   0  0  0
 170  3  0   0   0   0  0  0
 171  0 56   0   0   0  0  0
 172  0 56   0   0   0  0  0
 173  3  0   0   0   0  0  0
 174  0 57   0   0   0  0  0
 175  0 57   0   0   0  0  0
 176  3  0   0   0   0  0  0
 177  0 58   0   0   0  0  0
 178  0 58   0   0   0  0  0
 179  3  0   0   0   0  0  0
 180  0 59   0   0   0  0  0
 181  0 59   0   0   0  0  0
 182  3  0   0   0   0  0  0
 183  0 60   0   0   0  0  0
 184  0 60   0   0   0  0  0
 185  3  0   0   0   0  0  0
 186  0 61   0   0   0  0  0
 187  0 61   0   0   0  0  0
 188  3  0   0   0   0  0  0
 189  0 62   0   0   0  0  0
 190  0 62   0   0   0  0  0
 191  3  0   0   0   0  0  0
 192  0 63   0   0   0  0  0
 193  0 63   0   0   0  0  0
 194  3  0   0   0   0  0  0
 195  0 64   0   0   0  0  0
 196  0 64   0   0   0  0  0
 197  3  0   0   0   0  0  0
 198  0 65   0   0   0  0  0
 199  0 65   0   0   0  0  0
 200  3  0   0   0   0  0  0
 201  0 66   0   0   0  0  0
 202  0 66   0   0   0  0  0
 203  3  0   0   0   0  0  0
 204  0 67   0   0   0  0  0
 205  0 67   0   0   0  0  0
 206  3  0   0   0   0  0  0
 207  0 68   0   0   0  0  0
 208  0 68   0   0   0  0  0
 209  3  0   0   0   0  0  0
 210  0 69   0   0   0  0  0
 211  0 69   0   0   0  0  0
 212  3  0   0   0   0  0  0
 213  0 70   0   0   0  0  0
 214  0 70   0   0   0  0  0
 215  3  0   0   0   0  0  0
 216  0 71   0   0   0  0  0
 217  0 71   0   0   0  0  0
 218  3  0   0   0   0  0  0
 219  0 72   0   0   0  0  0
 220  0 72   0   0   0  0  0
 221  3  0   0   0   0  0  0
 222  0 73   0   0   0  0  0
 223  0 73   0   0   0  0  0
 224  3  0   0   0   0  0  0
 225  0 74   0   0   0  0  0
 226  0 74   0   0   0  0  0
 227  3  0   0   0   0  0  0
 228  0 75   0   0   0  0  0
 229  0 75   0   0   0  0  0
 230  3  0   0   0   0  0  0
 231  0 76   0   0   0  0  0
 232  0 76   0   0   0  0  0
 233  3  0   0   0   0  0  0
 234  0 77   0   0   0  0  0
 235  0 77   0   0   0  0  0
 236  3  0   0   0   0  0  0
 237  0 78   0   0   0  0  0
 238  0 78   0   0   0  0  0
 239  3  0   0   0   0  0  0
 240  0 79   0   0   0  0  0
 241  0 79   0   0   0  0  0
 242  3  0   0   0   0  0  0
 243  0 80   0   0   0  0  0
 244  0 80   0   0   0  0  0
 245  0  0   1   1   1  0  0
 246  0  0   0   0   0  1  0
 247  2  0   0   0   0  0  0
 248  0 81   0   0   0  0  0
 249  0 81   0   0   0  0  0
 250  3  0   0   0   0  0  0
 251  0 82   0   0   0  0  0
 252  0 82   0   0   0  0  0
 253  3  0   0   0   0  0  0
 254  0 83   0   0   0  0  0
 255  0 83   0   0   0  0  0
 256  3  0   0   0   0  0  0
 257  0 84   0   0   0  0  0
 258  0 84   0   0   0  0  0
 259  3  0   0   0   0  0  0
 260  0 85   0   0   0  0  0
 261  0 85   0   0   0  0  0
 262  3  0   0   0   0  0  0
 263  0 86   0   0   0  0  0
 264  0 86   0   0   0  0  0
 265  3  0   0   0   0  0  0
 266  0 87   0   0   0  0  0
 267  0 87   0   0   0  0  0
 268  3  0   0   0   0  0  0
 269  0 88   0   0   0  0  0
 270  0 88   0   0   0  0  0
 271  3  0   0   0   0  0  0
 272  0 89   0   0   0  0  0
 273  0 89   0   0   0  0  0
 274  3  0   0   0   0  0  0
 275  0 90   0   0   0  0  0
 276  0 90   0   0   0  0  0
 277  3  0   0   0   0  0  0
 278  0 91   0   0   0  0  0
 279  0 91   0   0   0  0  0
 280  3  0   0   0   0  0  0
 281  0 92   0   0   0  0  0
 282  0 92   0   0   0  0  0
 283  3  0   0   0   0  0  0
 284  0 93   0   0   0  0  0
 285  0 93   0   0   0  0  0
 286  3  0   0   0   0  0  0
 287  0 94   0   0   0  0  0
 288  0 94   0   0   0  0  0
 289  3  0   0   0   0  0  0
 290  0 95   0   0   0  0  0
 291  0 95   0   0   0  0  0
 292  3  0   0   0   0  0  0
 293  0 96   0   0   0  0  0
 294  0 96   0   0   0  0  0
 295  3  0   0   0   0  0  0
 296  0 97   0   0   0  0  0
 297  0 97   0   0   0  0  0
 298  3  0   0   0   0  0  0
 299  0 98   0   0   0  0  0
 300  0 98   0   0   0  0  0
 301  3  0   0   0   0  0  0
 302  0 99   0   0   0  0  0
 303  0 99   0   0   0  0  0
 304  3  0   0   0   0  0  0
 305  0 100   0   0   0  0  0
 306  0 100   0   0   0  0  0
 307  3  0   0   0   0  0  0
 308  0 101   0   0   0  0  0
 309  0 101   0   0   0  0  0
 310  3  0   0   0   0  0  0
 311  0 102   0   0   0  0  0
 312  0 102   0   0   0  0  0
 313  3  0   0   0   0  0  0
 314  0 103   0   0   0  0  0
 315  0 103   0   0   0  0  0
 316  3  0   0   0   0  0  0
 317  0 104   0   0   0  0  0
 318  0 104   0   0   0  0  0
 319  3  0   0   0   0  0  0
 320  0 105   0   0   0  0  0
 321  0 105   0   0   0  0  0
 322  3  0   0   0   0  0  0
 323  0 106   0   0   0  0  0
 324  0 106   0   0   0  0  0
 325  3  0   0   0   0  0  0
[RF]
1      145.354 1 2 100 -510.917 0
2      145.354 1 2 100 -510.917 2.85678
3      145.354 1 2 100 -510.917 5.71356
4      145.354 1 2 100 -510.917 2.28716
5      145.354 1 2 100 -510.917 5.14394
6      145.354 1 2 100 -510.917 1.71754
7      145.354 1 2 100 -510.917 4.57432
8      145.354 1 2 100 -510.917 1.14792
9      145.354 1 2 100 -510.917 4.0047
10      145.354 1 2 100 -510.917 0.578293
11      145.354 1 2 100 -510.917 3.43508
12      145.354 1 2 100 -510.917 0.00867133
13      145.354 1 2 100 -510.917 2.86545
14      145.354 1 2 100 -510.917 5.72223
15      145.354 1 2 100 -510.917 2.29583
16      145.354 1 2 100 -510.917 5.15261
17      145.354 1 2 100 -510.917 1.72621
18      145.354 1 2 100 -510.917 4.58299
19      145.354 1 2 100 -510.917 1.15659
20      145.354 1 2 100 -510.917 4.01337
21      145.354 1 2 100 -510.917 0.586965
22      145.354 1 2 100 -510.917 3.44375
23      145.354 1 2 100 -510.917 0.0173427
24      145.354 1 2 100 -510.917 2.87412
25      145.354 1 2 100 -510.917 5.73091
26      145.354 1 2 100 -510.917 2.3045
27      145.354 1 2 100 -510.917 5.16128
28      145.354 1 2 100 -510.917 1.73488
29      145.354 1 2 100 -510.917 4.59166
30      145.354 1 2 100 -510.917 1.16526
31      145.354 1 2 100 -510.917 4.02204
32      145.354 1 2 100 -510.917 0.595636
33      145.354 1 2 100 -510.917 3.45242
34      145.354 1 2 100 -510.917 0.026014
35      145.354 1 2 100 -510.917 2.8828
36      145.354 1 2 100 -510.917 5.73958
37      145.354 1 2 100 -510.917 2.31317
38      145.354 1 2 100 -510.917 5.16996
39      145.354 1 2 100 -510.917 1.74355
40      145.354 1 2 100 -510.917 4.60033
41      145.354 1 2 100 -498.144 0
42      145.354 1 2 100 -498.144 0.586247
43      145.354 1 2 100 -498.144 1.17249
44      145.354 1 2 100 -498.144 1.75874
45      145.354 1 2 100 -498.144 2.34499
46      145.354 1 2 100 -498.144 2.93124
47      145.354 1 2 100 -498.144 3.51748
48      145.354 1 2 100 -498.144 4.10373
49      145.354 1 2 100 -498.144 4.68998
50      145.354 1 2 100 -498.144 5.27623
51      145.354 1 2 100 -498.144 5.86247
52      145.354 1 2 100 -498.144 0.165534
53      145.354 1 2 100 -498.144 0.751781
54      145.354 1 2 100 -498.144 1.33803
55      145.354 1 2 100 -498.144 1.92428
56      145.354 1 2 100 -498.144 2.51052
57      145.354 1 2 100 -498.144 3.09677
58      145.354 1 2 100 -498.144 3.68302
59      145.354 1 2 100 -498.144 4.26926
60      145.354 1 2 100 -498.144 4.85551
61      145.354 1 2 100 -498.144 5.44176
62      145.354 1 2 100 -498.144 6.02801
63      145.354 1 2 100 -498.144 0.331068
64      145.354 1 2 100 -498.144 0.917316
65      145.354 1 2 100 -498.144 1.50356
66      145.354 1 2 100 -498.144 2.08981
67      145.354 1 2 100 -498.144 2.67606
68      145.354 1 2 100 -498.144 3.2623
69      145.354 1 2 100 -498.144 3.84855
70      145.354 1 2 100 -498.144 4.4348
71      145.354 1 2 100 -498.144 5.02105
72      145.354 1 2 100 -498.144 5.60729
73      145.354 1 2 100 -498.144 6.19354
74      145.354 1 2 100 -498.144 0.496603
75      145.354 1 2 100 -498.144 1.08285
76      145.354 1 2 100 -498.144 1.6691
77      145.354 1 2 100 -498.144 2.25534
78      145.354 1 2 100 -498.144 2.84159
79      145.354 1 2 100 -498.144 3.42784
80      145.354 1 2 100 -498.144 4.01409
81      145.354 1 2 100 -485.371 0
82      145.354 1 2 100 -485.371 4.5989
83      145.354 1 2 100 -485.371 2.91461
84      145.354 1 2 100 -485.371 1.23032
85      145.354 1 2 100 -485.371 5.82922
86      145.354 1 2 100 -485.371 4.14493
87      145.354 1 2 100 -485.371 2.46065
88      145.354 1 2 100 -485.371 0.77636
89      145.354 1 2 100 -485.371 5.37526
90      145.354 1 2 100 -485.371 3.69097
91      145.354 1 2 100 -485.371 2.00668
92      145.354 1 2 100 -485.371 0.322397
93      145.354 1 2 100 -485.371 4.9213
94      145.354 1 2 100 -485.371 3.23701
95      145.354 1 2 100 -485.371 1.55272
96      145.354 1 2 100 -485.371 6.15162
97      145.354 1 2 100 -485.371 4.46733
98      145.354 1 2 100 -485.371 2.78304
99      145.354 1 2 100 -485.371 1.09876
100      145.354 1 2 100 -485.371 5.69766
101      145.354 1 2 100 -485.371 4.01337
102      145.354 1 2 100 -485.371 2.32908
103      145.354 1 2 100 -485.371 0.644794
104      145.354 1 2 100 -485.371 5.24369
105      145.354 1 2 100 -485.371 3.55941
106      145.354 1 2 100 -485.371 1.87512
107      145.354 1 2 100 -485.371 0.190831
108      145.354 1 2 100 -485.371 4.78973
109      145.354 1 2 100 -485.371 3.10544
110      145.354 1 2 100 -485.371 1.42115
111      145.354 1 2 100 -485.371 6.02005
112      145.354 1 2 100 -485.371 4.33577
113      145.354 1 2 100 -485.371 2.65148
114      145.354 1 2 100 -485.371 0.967191
115      145.354 1 2 100 -485.371 5.56609
116      145.354 1 2 100 -485.371 3.8818
117      145.354 1 2 100 -485.371 2.19751
118      145.354 1 2 100 -485.371 0.513228
119      145.354 1 2 100 -485.371 5.11213
120      145.354 1 2 100 -485.371 3.42784
121      145.354 1 2 100 -472.598 0
122      145.354 1 2 100 -472.598 2.32836
123      145.354 1 2 100 -472.598 4.65673
124      145.354 1 2 100 -472.598 0.701906
125      145.354 1 2 100 -472.598 3.03027
126      145.354 1 2 100 -472.598 5.35863
127      145.354 1 2 100 -472.598 1.40381
128      145.354 1 2 100 -472.598 3.73218
129      145.354 1 2 100 -472.598 6.06054
130      145.354 1 2 100 -472.598 2.10572
131      145.354 1 2 100 -472.598 4.43408
132      145.354 1 2 100 -472.598 0.47926
133      145.354 1 2 100 -472.598 2.80762
134      145.354 1 2 100 -472.598 5.13599
135      145.354 1 2 100 -472.598 1.18117
136      145.354 1 2 100 -472.598 3.50953
137      145.354 1 2 100 -472.598 5.83789
138      145.354 1 2 100 -472.598 1.88307
139      145.354 1 2 100 -472.598 4.21144
140      145.354 1 2 100 -472.598 0.256614
141      145.354 1 2 100 -472.598 2.58498
142      145.354 1 2 100 -472.598 4.91334
143      145.354 1 2 100 -472.598 0.95852
144      145.354 1 2 100 -472.598 3.28688
145      145.354 1 2 100 -472.598 5.61525
146      145.354 1 2 100 -472.598 1.66043
147      145.354 1 2 100 -472.598 3.98879
148      145.354 1 2 100 -472.598 0.0339678
149      145.354 1 2 100 -472.598 2.36233
150      145.354 1 2 100 -472.598 4.6907
151      145.354 1 2 100 -472.598 0.735874
152      145.354 1 2 100 -472.598 3.06424
153      145.354 1 2 100 -472.598 5.3926
154      145.354 1 2 100 -472.598 1.43778
155      145.354 1 2 100 -472.598 3.76614
156      145.354 1 2 100 -472.598 6.09451
157      145.354 1 2 100 -472.598 2.13969
158      145.354 1 2 100 -472.598 4.46805
159      145.354 1 2 100 -472.598 0.513228
160      145.354 1 2 100 -472.598 2.84159
161      145.354 1 2 100 -459.825 0
162      145.354 1 2 100 -459.825 0.0578293
163      145.354 1 2 100 -459.825 0.115659
164      145.354 1 2 100 -459.825 0.173488
165      145.354 1 2 100 -459.825 0.231317
166      145.354 1 2 100 -459.825 0.289147
167      145.354 1 2 100 -459.825 0.346976
168      145.354 1 2 100 -459.825 0.404805
169      145.354 1 2 100 -459.825 0.462635
170      145.354 1 2 100 -459.825 0.520464
171      145.354 1 2 100 -459.825 0.578293
172      145.354 1 2 100 -459.825 0.636123
173      145.354 1 2 100 -459.825 0.693952
174      145.354 1 2 100 -459.825 0.751781
175      145.354 1 2 100 -459.825 0.809611
176      145.354 1 2 100 -459.825 0.86744
177      145.354 1 2 100 -459.825 0.925269
178      145.354 1 2 100 -459.825 0.983099
179      145.354 1 2 100 -459.825 1.04093
180      145.354 1 2 100 -459.825 1.09876
181      145.354 1 2 100 -459.825 1.15659
182      145.354 1 2 100 -459.825 1.21442
183      145.354 1 2 100 -459.825 1.27225
184      145.354 1 2 100 -459.825 1.33007
185      145.354 1 2 100 -459.825 1.3879
186      145.354 1 2 100 -459.825 1.44573
187      145.354 1 2 100 -459.825 1.50356
188      145.354 1 2 100 -459.825 1.56139
189      145.354 1 2 100 -459.825 1.61922
190      145.354 1 2 100 -459.825 1.67705
191      145.354 1 2 100 -459.825 1.73488
192      145.354 1 2 100 -459.825 1.79271
193      145.354 1 2 100 -459.825 1.85054
194      145.354 1 2 100 -459.825 1.90837
195      145.354 1 2 100 -459.825 1.9662
196      145.354 1 2 100 -459.825 2.02403
197      145.354 1 2 100 -459.825 2.08186
198      145.354 1 2 100 -459.825 2.13969
199      145.354 1 2 100 -459.825 2.19751
200      145.354 1 2 100 -459.825 2.25534
201      145.354 1 2 100 -447.052 0
202      145.354 1 2 100 -447.052 4.07048
203      145.354 1 2 100 -447.052 1.85778
204      145.354 1 2 100 -447.052 5.92826
205      145.354 1 2 100 -447.052 3.71555
206      145.354 1 2 100 -447.052 1.50285
207      145.354 1 2 100 -447.052 5.57333
208      145.354 1 2 100 -447.052 3.36062
209      145.354 1 2 100 -447.052 1.14792
210      145.354 1 2 100 -447.052 5.2184
211      145.354 1 2 100 -447.052 3.00569
212      145.354 1 2 100 -447.052 0.792986
213      145.354 1 2 100 -447.052 4.86347
214      145.354 1 2 100 -447.052 2.65076
215      145.354 1 2 100 -447.052 0.438056
216      145.354 1 2 100 -447.052 4.50854
217      145.354 1 2 100 -447.052 2.29583
218      145.354 1 2 100 -447.052 0.0831258
219      145.354 1 2 100 -447.052 4.15361
220      145.354 1 2 100 -447.052 1.9409
221      145.354 1 2 100 -447.052 6.01138
222      145.354 1 2 100 -447.052 3.79868
223      145.354 1 2 100 -447.052 1.58597
224      145.354 1 2 100 -447.052 5.65645
225      145.354 1 2 100 -447.052 3.44375
226      145.354 1 2 100 -447.052 1.23104
227      145.354 1 2 100 -447.052 5.30152
228      145.354 1 2 100 -447.052 3.08882
229      145.354 1 2 100 -447.052 0.876111
230      145.354 1 2 100 -447.052 4.94659
231      145.354 1 2 100 -447.052 2.73389
232      145.354 1 2 100 -447.052 0.521182
233      145.354 1 2 100 -447.052 4.59166
234      145.354 1 2 100 -447.052 2.37896
235      145.354 1 2 100 -447.052 0.166252
236      145.354 1 2 100 -447.052 4.23673
237      145.354 1 2 100 -447.052 2.02403
238      145.354 1 2 100 -447.052 6.09451
239      145.354 1 2 100 -447.052 3.8818
240      145.354 1 2 100 -447.052 1.6691
241      145.354 1 2 100 -434.279 0
242      145.354 1 2 100 -434.279 1.79995
243      145.354 1 2 100 -434.279 3.59989
244      145.354 1 2 100 -434.279 5.39984
245      145.354 1 2 100 -434.279 0.916598
246      145.354 1 2 100 -434.279 2.71654
247      145.354 1 2 100 -434.279 4.51649
248      145.354 1 2 100 -434.279 0.0332503
249      145.354 1 2 100 -434.279 1.8332
250      145.354 1 2 100 -434.279 3.63314
251      145.354 1 2 100 -434.279 5.43309
252      145.354 1 2 100 -434.279 0.949848
253      145.354 1 2 100 -434.279 2.74979
254      145.354 1 2 100 -434.279 4.54974
255      145.354 1 2 100 -434.279 0.0665007
256      145.354 1 2 100 -434.279 1.86645
257      145.354 1 2 100 -434.279 3.66639
258      145.354 1 2 100 -434.279 5.46634
259      145.354 1 2 100 -434.279 0.983099
260      145.354 1 2 100 -434.279 2.78304
261      145.354 1 2 100 -434.279 4.58299
262      145.354 1 2 100 -434.279 0.099751
263      145.354 1 2 100 -434.279 1.8997
264      145.354 1 2 100 -434.279 3.69964
265      145.354 1 2 100 -434.279 5.49959
266      145.354 1 2 100 -434.279 1.01635
267      145.354 1 2 100 -434.279 2.81629
268      145.354 1 2 100 -434.279 4.61624
269      145.354 1 2 100 -434.279 0.133001
270      145.354 1 2 100 -434.279 1.93295
271      145.354 1 2 100 -434.279 3.73289
272      145.354 1 2 100 -434.279 5.53284
273      145.354 1 2 100 -434.279 1.0496
274      145.354 1 2 100 -434.279 2.84955
275      145.354 1 2 100 -434.279 4.64949
276      145.354 1 2 100 -434.279 0.166252
277      145.354 1 2 100 -434.279 1.9662
278      145.354 1 2 100 -434.279 3.76614
279      145.354 1 2 100 -434.279 5.56609
280      145.354 1 2 100 -434.279 1.08285
281      145.354 1 2 100 -421.506 0
282      145.354 1 2 100 -421.506 5.8126
283      145.354 1 2 100 -421.506 5.34201
284      145.354 1 2 100 -421.506 4.87142
285      145.354 1 2 100 -421.506 4.40083
286      145.354 1 2 100 -421.506 3.93024
287      145.354 1 2 100 -421.506 3.45965
288      145.354 1 2 100 -421.506 2.98907
289      145.354 1 2 100 -421.506 2.51848
290      145.354 1 2 100 -421.506 2.04789
291      145.354 1 2 100 -421.506 1.5773
292      145.354 1 2 100 -421.506 1.10671
293      145.354 1 2 100 -421.506 0.636123
294      145.354 1 2 100 -421.506 0.165534
295      145.354 1 2 100 -421.506 5.97813
296      145.354 1 2 100 -421.506 5.50754
297      145.354 1 2 100 -421.506 5.03695
298      145.354 1 2 100 -421.506 4.56637
299      145.354 1 2 100 -421.506 4.09578
300      145.354 1 2 100 -421.506 3.62519
301      145.354 1 2 100 -421.506 3.1546
302      145.354 1 2 100 -421.506 2.68401
303      145.354 1 2 100 -421.506 2.21342
304      145.354 1 2 100 -421.506 1.74283
305      145.354 1 2 100 -421.506 1.27225
306      145.354 1 2 100 -421.506 0.801657
307      145.354 1 2 100 -421.506 0.331068
308      145.354 1 2 100 -421.506 6.14367
309      145.354 1 2 100 -421.506 5.67308
310      145.354 1 2 100 -421.506 5.20249
311      145.354 1 2 100 -421.506 4.7319
312      145.354 1 2 100 -421.506 4.26131
313      145.354 1 2 100 -421.506 3.79072
314      145.354 1 2 100 -421.506 3.32013
315      145.354 1 2 100 -421.506 2.84955
316      145.354 1 2 100 -421.506 2.37896
317      145.354 1 2 100 -421.506 1.90837
318      145.354 1 2 100 -421.506 1.43778
319      145.354 1 2 100 -421.506 0.967191
320      145.354 1 2 100 -421.506 0.496603
321      145.354 1 2 100 -408.733 0
322      145.354 1 2 100 -408.733 3.54206
323      145.354 1 2 100 -408.733 0.800939
324      145.354 1 2 100 -408.733 4.343
325      145.354 1 2 100 -408.733 1.60188
326      145.354 1 2 100 -408.733 5.14394
327      145.354 1 2 100 -408.733 2.40282
328      145.354 1 2 100 -408.733 5.94488
329      145.354 1 2 100 -408.733 3.20376
330      145.354 1 2 100 -408.733 0.462635
331      145.354 1 2 100 -408.733 4.0047
332      145.354 1 2 100 -408.733 1.26357
333      145.354 1 2 100 -408.733 4.80564
334      145.354 1 2 100 -408.733 2.06451
335      145.354 1 2 100 -408.733 5.60658
336      145.354 1 2 100 -408.733 2.86545
337      145.354 1 2 100 -408.733 0.12433
338      145.354 1 2 100 -408.733 3.66639
339      145.354 1 2 100 -408.733 0.925269
340      145.354 1 2 100 -408.733 4.46733
341      145.354 1 2 100 -408.733 1.72621
342      145.354 1 2 100 -408.733 5.26827
343      145.354 1 2 100 -408.733 2.52715
344      145.354 1 2 100 -408.733 6.06921
345      145.354 1 2 100 -408.733 3.32809
346      145.354 1 2 100 -408.733 0.586965
347      145.354 1 2 100 -408.733 4.12903
348      145.354 1 2 100 -408.733 1.3879
349      145.354 1 2 100 -408.733 4.92997
350      145.354 1 2 100 -408.733 2.18884
351      145.354 1 2 100 -408.733 5.73091
352      145.354 1 2 100 -408.733 2.98978
353      145.354 1 2 100 -408.733 0.24866
354      145.354 1 2 100 -408.733 3.79072
355      145.354 1 2 100 -408.733 1.0496
356      145.354 1 2 100 -408.733 4.59166
357      145.354 1 2 100 -408.733 1.85054
358      145.354 1 2 100 -408.733 5.3926
359      145.354 1 2 100 -408.733 2.65148
360      145.354 1 2 100 -408.733 6.19354
361      145.354 1 2 100 -395.961 0
362      145.354 1 2 100 -395.961 1.27153
363      145.354 1 2 100 -395.961 2.54306
364      145.354 1 2 100 -395.961 3.81458
365      145.354 1 2 100 -395.961 5.08611
366      145.354 1 2 100 -395.961 0.0744545
367      145.354 1 2 100 -395.961 1.34598
368      145.354 1 2 100 -395.961 2.61751
369      145.354 1 2 100 -395.961 3.88904
370      145.354 1 2 100 -395.961 5.16057
371      145.354 1 2 100 -395.961 0.148909
372      145.354 1 2 100 -395.961 1.42044
373      145.354 1 2 100 -395.961 2.69196
374      145.354 1 2 100 -395.961 3.96349
375      145.354 1 2 100 -395.961 5.23502
376      145.354 1 2 100 -395.961 0.223364
377      145.354 1 2 100 -395.961 1.49489
378      145.354 1 2 100 -395.961 2.76642
379      145.354 1 2 100 -395.961 4.03795
380      145.354 1 2 100 -395.961 5.30948
381      145.354 1 2 100 -395.961 0.297818
382      145.354 1 2 100 -395.961 1.56935
383      145.354 1 2 100 -395.961 2.84087
384      145.354 1 2 100 -395.961 4.1124
385      145.354 1 2 100 -395.961 5.38393
386      145.354 1 2 100 -395.961 0.372273
387      145.354 1 2 100 -395.961 1.6438
388      145.354 1 2 100 -395.961 2.91533
389      145.354 1 2 100 -395.961 4.18686
390      145.354 1 2 100 -395.961 5.45838
391      145.354 1 2 100 -395.961 0.446727
392      145.354 1 2 100 -395.961 1.71825
393      145.354 1 2 100 -395.961 2.98978
394      145.354 1 2 100 -395.961 4.26131
395      145.354 1 2 100 -395.961 5.53284
396      145.354 1 2 100 -395.961 0.521182
397      145.354 1 2 100 -395.961 1.79271
398      145.354 1 2 100 -395.961 3.06424
399      145.354 1 2 100 -395.961 4.33577
400      145.354 1 2 100 -395.961 5.60729
401      145.354 1 2 100 -383.188 0
402      145.354 1 2 100 -383.188 5.28418
403      145.354 1 2 100 -383.188 4.28517
404      145.354 1 2 100 -383.188 3.28617
405      145.354 1 2 100 -383.188 2.28716
406      145.354 1 2 100 -383.188 1.28815
407      145.354 1 2 100 -383.188 0.289147
408      145.354 1 2 100 -383.188 5.57333
409      145.354 1 2 100 -383.188 4.57432
410      145.354 1 2 100 -383.188 3.57531
411      145.354 1 2 100 -383.188 2.57631
412      145.354 1 2 100 -383.188 1.5773
413      145.354 1 2 100 -383.188 0.578293
414      145.354 1 2 100 -383.188 5.86247
415      145.354 1 2 100 -383.188 4.86347
416      145.354 1 2 100 -383.188 3.86446
417      145.354 1 2 100 -383.188 2.86545
418      145.354 1 2 100 -383.188 1.86645
419      145.354 1 2 100 -383.188 0.86744
420      145.354 1 2 100 -383.188 6.15162
421      145.354 1 2 100 -383.188 5.15261
422      145.354 1 2 100 -383.188 4.15361
423      145.354 1 2 100 -383.188 3.1546
424      145.354 1 2 100 -383.188 2.15559
425      145.354 1 2 100 -383.188 1.15659
426      145.354 1 2 100 -383.188 0.15758
427      145.354 1 2 100 -383.188 5.44176
428      145.354 1 2 100 -383.188 4.44275
429      145.354 1 2 100 -383.188 3.44375
430      145.354 1 2 100 -383.188 2.44474
431      145.354 1 2 100 -383.188 1.44573
432      145.354 1 2 100 -383.188 0.446727
433      145.354 1 2 100 -383.188 5.73091
434      145.354 1 2 100 -383.188 4.7319
435      145.354 1 2 100 -383.188 3.73289
436      145.354 1 2 100 -383.188 2.73389
437      145.354 1 2 100 -383.188 1.73488
438      145.354 1 2 100 -383.188 0.735874
439      145.354 1 2 100 -383.188 6.02005
440      145.354 1 2 100 -383.188 5.02105
441      145.354 1 2 100 -370.415 0
442      145.354 1 2 100 -370.415 3.01364
443      145.354 1 2 100 -370.415 6.02729
444      145.354 1 2 100 -370.415 2.75775
445      145.354 1 2 100 -370.415 5.77139
446      145.354 1 2 100 -370.415 2.50185
447      145.354 1 2 100 -370.415 5.5155
448      145.354 1 2 100 -370.415 2.24596
449      145.354 1 2 100 -370.415 5.2596
450      145.354 1 2 100 -370.415 1.99006
451      145.354 1 2 100 -370.415 5.0037
452      145.354 1 2 100 -370.415 1.73416
453      145.354 1 2 100 -370.415 4.74781
454      145.354 1 2 100 -370.415 1.47827
455      145.354 1 2 100 -370.415 4.49191
456      145.354 1 2 100 -370.415 1.22237
457      145.354 1 2 100 -370.415 4.23601
458      145.354 1 2 100 -370.415 0.966474
459      145.354 1 2 100 -370.415 3.98012
460      145.354 1 2 100 -370.415 0.710577
461      145.354 1 2 100 -370.415 3.72422
462      145.354 1 2 100 -370.415 0.454681
463      145.354 1 2 100 -370.415 3.46833
464      145.354 1 2 100 -370.415 0.198785
465      145.354 1 2 100 -370.415 3.21243
466      145.354 1 2 100 -370.415 6.22607
467      145.354 1 2 100 -370.415 2.95653
468      145.354 1 2 100 -370.415 5.97018
469      145.354 1 2 100 -370.415 2.70064
470      145.354 1 2 100 -370.415 5.71428
471      145.354 1 2 100 -370.415 2.44474
472      145.354 1 2 100 -370.415 5.45838
473      145.354 1 2 100 -370.415 2.18884
474      145.354 1 2 100 -370.415 5.20249
475      145.354 1 2 100 -370.415 1.93295
476      145.354 1 2 100 -370.415 4.94659
477      145.354 1 2 100 -370.415 1.67705
478      145.354 1 2 100 -370.415 4.6907
479      145.354 1 2 100 -370.415 1.42115
