# Pulseq sequence file
# Created by MATLAB mr toolbox

[VERSION]
major 1
minor 3
revision 0

[DEFINITIONS]
offsets_ppm -4 -3.75 -3.75 -3.5 -3.5 -3.25 -3.25 -3 3 3.25 3.25 3.5 3.5 3.75 3.75 4 
run_m0_scan 1 

# Format of blocks:
#  #  D RF  GX  GY  GZ ADC EXT
[BLOCKS]
  1  1  0   0   0   0  0  0
  2  0  0   0   0   0  1  0
  3  2  0   0   0   0  0  0
  4  0  1   0   0   0  0  0
  5  3  0   0   0   0  0  0
  6  0  1   0   0   0  0  0
  7  3  0   0   0   0  0  0
  8  4  0   0   0   0  0  0
  9  0  1   0   0   0  0  0
 10  3  0   0   0   0  0  0
 11  0  1   0   0   0  0  0
 12  3  0   0   0   0  0  0
 13  4  0   0   0   0  0  0
 14  0  1   0   0   0  0  0
 15  3  0   0   0   0  0  0
 16  0  1   0   0   0  0  0
 17  3  0   0   0   0  0  0
 18  4  0   0   0   0  0  0
 19  0  1   0   0   0  0  0
 20  3  0   0   0   0  0  0
 21  0  1   0   0   0  0  0
 22  0  0   1   1   1  0  0
 23  0  0   0   0   0  1  0
 24  2  0   0   0   0  0  0
 25  0  2   0   0   0  0  0
 26  3  0   0   0   0  0  0
 27  0  2   0   0   0  0  0
 28  3  0   0   0   0  0  0
 29  4  0   0   0   0  0  0
 30  0  2   0   0   0  0  0
 31  3  0   0   0   0  0  0
 32  0  2   0   0   0  0  0
 33  3  0   0   0   0  0  0
 34  4  0   0   0   0  0  0
 35  0  2   0   0   0  0  0
 36  3  0   0   0   0  0  0
 37  0  2   0   0   0  0  0
 38  3  0   0   0   0  0  0
 39  4  0   0   0   0  0  0
 40  0  2   0   0   0  0  0
 41  3  0   0   0   0  0  0
 42  0  2   0   0   0  0  0
 43  0  0   1   1   1  0  0
 44  0  0   0   0   0  1  0
 45  2  0   0   0   0  0  0
 46  0  2   0   0   0  0  0
 47  3  0   0   0   0  0  0
 48  0  2   0   0   0  0  0
 49  3  0   0   0   0  0  0
 50  4  0   0   0   0  0  0
 51  0  2   0   0   0  0  0
 52  3  0   0   0   0  0  0
 53  0  2   0   0   0  0  0
 54  3  0   0   0   0  0  0
 55  4  0   0   0   0  0  0
 56  0  2   0   0   0  0  0
 57  3  0   0   0   0  0  0
 58  0  2   0   0   0  0  0
 59  3  0   0   0   0  0  0
 60  4  0   0   0   0  0  0
 61  0  2   0   0   0  0  0
 62  3  0   0   0   0  0  0
 63  0  2   0   0   0  0  0
 64  0  0   1   1   1  0  0
 65  0  0   0   0   0  1  0
 66  2  0   0   0   0  0  0
 67  0  3   0   0   0  0  0
 68  3  0   0   0   0  0  0
 69  0  3   0   0   0  0  0
 70  3  0   0   0   0  0  0
 71  4  0   0   0   0  0  0
 72  0  3   0   0   0  0  0
 73  3  0   0   0   0  0  0
 74  0  3   0   0   0  0  0
 75  3  0   0   0   0  0  0
 76  4  0   0   0   0  0  0
 77  0  3   0   0   0  0  0
 78  3  0   0   0   0  0  0
 79  0  3   0   0   0  0  0
 80  3  0   0   0   0  0  0
 81  4  0   0   0   0  0  0
 82  0  3   0   0   0  0  0
 83  3  0   0   0   0  0  0
 84  0  3   0   0   0  0  0
 85  0  0   1   1   1  0  0
 86  0  0   0   0   0  1  0
 87  2  0   0   0   0  0  0
 88  0  3   0   0   0  0  0
 89  3  0   0   0   0  0  0
 90  0  3   0   0   0  0  0
 91  3  0   0   0   0  0  0
 92  4  0   0   0   0  0  0
 93  0  3   0   0   0  0  0
 94  3  0   0   0   0  0  0
 95  0  3   0   0   0  0  0
 96  3  0   0   0   0  0  0
 97  4  0   0   0   0  0  0
 98  0  3   0   0   0  0  0
 99  3  0   0   0   0  0  0
100  0  3   0   0   0  0  0
101  3  0   0   0   0  0  0
102  4  0   0   0   0  0  0
103  0  3   0   0   0  0  0
104  3  0   0   0   0  0  0
105  0  3   0   0   0  0  0
106  0  0   1   1   1  0  0
107  0  0   0   0   0  1  0
108  2  0   0   0   0  0  0
109  0  4   0   0   0  0  0
110  3  0   0   0   0  0  0
111  0  4   0   0   0  0  0
112  3  0   0   0   0  0  0
113  4  0   0   0   0  0  0
114  0  4   0   0   0  0  0
115  3  0   0   0   0  0  0
116  0  4   0   0   0  0  0
117  3  0   0   0   0  0  0
118  4  0   0   0   0  0  0
119  0  4   0   0   0  0  0
120  3  0   0   0   0  0  0
121  0  4   0   0   0  0  0
122  3  0   0   0   0  0  0
123  4  0   0   0   0  0  0
124  0  4   0   0   0  0  0
125  3  0   0   0   0  0  0
126  0  4   0   0   0  0  0
127  0  0   1   1   1  0  0
128  0  0   0   0   0  1  0
129  2  0   0   0   0  0  0
130  0  4   0   0   0  0  0
131  3  0   0   0   0  0  0
132  0  4   0   0   0  0  0
133  3  0   0   0   0  0  0
134  4  0   0   0   0  0  0
135  0  4   0   0   0  0  0
136  3  0   0   0   0  0  0
137  0  4   0   0   0  0  0
138  3  0   0   0   0  0  0
139  4  0   0   0   0  0  0
140  0  4   0   0   0  0  0
141  3  0   0   0   0  0  0
142  0  4   0   0   0  0  0
143  3  0   0   0   0  0  0
144  4  0   0   0   0  0  0
145  0  4   0   0   0  0  0
146  3  0   0   0   0  0  0
147  0  4   0   0   0  0  0
148  0  0   1   1   1  0  0
149  0  0   0   0   0  1  0
150  2  0   0   0   0  0  0
151  0  5   0   0   0  0  0
152  3  0   0   0   0  0  0
153  0  5   0   0   0  0  0
154  3  0   0   0   0  0  0
155  4  0   0   0   0  0  0
156  0  5   0   0   0  0  0
157  3  0   0   0   0  0  0
158  0  5   0   0   0  0  0
159  3  0   0   0   0  0  0
160  4  0   0   0   0  0  0
161  0  5   0   0   0  0  0
162  3  0   0   0   0  0  0
163  0  5   0   0   0  0  0
164  3  0   0   0   0  0  0
165  4  0   0   0   0  0  0
166  0  5   0   0   0  0  0
167  3  0   0   0   0  0  0
168  0  5   0   0   0  0  0
169  0  0   1   1   1  0  0
170  0  0   0   0   0  1  0
171  2  0   0   0   0  0  0
172  0  6   0   0   0  0  0
173  3  0   0   0   0  0  0
174  0  6   0   0   0  0  0
175  3  0   0   0   0  0  0
176  4  0   0   0   0  0  0
177  0  6   0   0   0  0  0
178  3  0   0   0   0  0  0
179  0  6   0   0   0  0  0
180  3  0   0   0   0  0  0
181  4  0   0   0   0  0  0
182  0  6   0   0   0  0  0
183  3  0   0   0   0  0  0
184  0  6   0   0   0  0  0
185  3  0   0   0   0  0  0
186  4  0   0   0   0  0  0
187  0  6   0   0   0  0  0
188  3  0   0   0   0  0  0
189  0  6   0   0   0  0  0
190  0  0   1   1   1  0  0
191  0  0   0   0   0  1  0
192  2  0   0   0   0  0  0
193  0  7   0   0   0  0  0
194  3  0   0   0   0  0  0
195  0  7   0   0   0  0  0
196  3  0   0   0   0  0  0
197  4  0   0   0   0  0  0
198  0  7   0   0   0  0  0
199  3  0   0   0   0  0  0
200  0  7   0   0   0  0  0
201  3  0   0   0   0  0  0
202  4  0   0   0   0  0  0
203  0  7   0   0   0  0  0
204  3  0   0   0   0  0  0
205  0  7   0   0   0  0  0
206  3  0   0   0   0  0  0
207  4  0   0   0   0  0  0
208  0  7   0   0   0  0  0
209  3  0   0   0   0  0  0
210  0  7   0   0   0  0  0
211  0  0   1   1   1  0  0
212  0  0   0   0   0  1  0
213  2  0   0   0   0  0  0
214  0  7   0   0   0  0  0
215  3  0   0   0   0  0  0
216  0  7   0   0   0  0  0
217  3  0   0   0   0  0  0
218  4  0   0   0   0  0  0
219  0  7   0   0   0  0  0
220  3  0   0   0   0  0  0
221  0  7   0   0   0  0  0
222  3  0   0   0   0  0  0
223  4  0   0   0   0  0  0
224  0  7   0   0   0  0  0
225  3  0   0   0   0  0  0
226  0  7   0   0   0  0  0
227  3  0   0   0   0  0  0
228  4  0   0   0   0  0  0
229  0  7   0   0   0  0  0
230  3  0   0   0   0  0  0
231  0  7   0   0   0  0  0
232  0  0   1   1   1  0  0
233  0  0   0   0   0  1  0
234  2  0   0   0   0  0  0
235  0  8   0   0   0  0  0
236  3  0   0   0   0  0  0
237  0  8   0   0   0  0  0
238  3  0   0   0   0  0  0
239  4  0   0   0   0  0  0
240  0  8   0   0   0  0  0
241  3  0   0   0   0  0  0
242  0  8   0   0   0  0  0
243  3  0   0   0   0  0  0
244  4  0   0   0   0  0  0
245  0  8   0   0   0  0  0
246  3  0   0   0   0  0  0
247  0  8   0   0   0  0  0
248  3  0   0   0   0  0  0
249  4  0   0   0   0  0  0
250  0  8   0   0   0  0  0
251  3  0   0   0   0  0  0
252  0  8   0   0   0  0  0
253  0  0   1   1   1  0  0
254  0  0   0   0   0  1  0
255  2  0   0   0   0  0  0
256  0  8   0   0   0  0  0
257  3  0   0   0   0  0  0
258  0  8   0   0   0  0  0
259  3  0   0   0   0  0  0
260  4  0   0   0   0  0  0
261  0  8   0   0   0  0  0
262  3  0   0   0   0  0  0
263  0  8   0   0   0  0  0
264  3  0   0   0   0  0  0
265  4  0   0   0   0  0  0
266  0  8   0   0   0  0  0
267  3  0   0   0   0  0  0
268  0  8   0   0   0  0  0
269  3  0   0   0   0  0  0
270  4  0   0   0   0  0  0
271  0  8   0   0   0  0  0
272  3  0   0   0   0  0  0
273  0  8   0   0   0  0  0
274  0  0   1   1   1  0  0
275  0  0   0   0   0  1  0
276  2  0   0   0   0  0  0
277  0  9   0   0   0  0  0
278  3  0   0   0   0  0  0
279  0  9   0   0   0  0  0
280  3  0   0   0   0  0  0
281  4  0   0   0   0  0  0
282  0  9   0   0   0  0  0
283  3  0   0   0   0  0  0
284  0  9   0   0   0  0  0
285  3  0   0   0   0  0  0
286  4  0   0   0   0  0  0
287  0  9   0   0   0  0  0
288  3  0   0   0   0  0  0
289  0  9   0   0   0  0  0
290  3  0   0   0   0  0  0
291  4  0   0   0   0  0  0
292  0  9   0   0   0  0  0
293  3  0   0   0   0  0  0
294  0  9   0   0   0  0  0
295  0  0   1   1   1  0  0
296  0  0   0   0   0  1  0
297  2  0   0   0   0  0  0
298  0  9   0   0   0  0  0
299  3  0   0   0   0  0  0
300  0  9   0   0   0  0  0
301  3  0   0   0   0  0  0
302  4  0   0   0   0  0  0
303  0  9   0   0   0  0  0
304  3  0   0   0   0  0  0
305  0  9   0   0   0  0  0
306  3  0   0   0   0  0  0
307  4  0   0   0   0  0  0
308  0  9   0   0   0  0  0
309  3  0   0   0   0  0  0
310  0  9   0   0   0  0  0
311  3  0   0   0   0  0  0
312  4  0   0   0   0  0  0
313  0  9   0   0   0  0  0
314  3  0   0   0   0  0  0
315  0  9   0   0   0  0  0
316  0  0   1   1   1  0  0
317  0  0   0   0   0  1  0
318  2  0   0   0   0  0  0
319  0 10   0   0   0  0  0
320  3  0   0   0   0  0  0
321  0 10   0   0   0  0  0
322  3  0   0   0   0  0  0
323  4  0   0   0   0  0  0
324  0 10   0   0   0  0  0
325  3  0   0   0   0  0  0
326  0 10   0   0   0  0  0
327  3  0   0   0   0  0  0
328  4  0   0   0   0  0  0
329  0 10   0   0   0  0  0
330  3  0   0   0   0  0  0
331  0 10   0   0   0  0  0
332  3  0   0   0   0  0  0
333  4  0   0   0   0  0  0
334  0 10   0   0   0  0  0
335  3  0   0   0   0  0  0
336  0 10   0   0   0  0  0
337  0  0   1   1   1  0  0
338  0  0   0   0   0  1  0

# Format of RF events:
# id amplitude mag_id phase_id delay freq phase
# ..        Hz   ....     ....    us   Hz   rad
[RF]
1      85.1528 1 2 100 -510.917 0
2      85.1528 1 2 100 -478.984 0
3      85.1528 1 2 100 -447.052 0
4      85.1528 1 2 100 -415.12 0
5      85.1528 1 2 100 -383.188 0
6      85.1528 1 2 100 383.188 0
7      85.1528 1 2 100 415.12 0
8      85.1528 1 2 100 447.052 0
9      85.1528 1 2 100 478.984 0
10      85.1528 1 2 100 510.917 0

# Format of trapezoid gradients:
# id amplitude rise flat fall delay
# ..      Hz/m   us   us   us    us
[TRAP]
 1  1.36243e+06 250 4000 250   0

# Format of ADC events:
# id num dwell delay freq phase
# ..  ..    ns    us   Hz   rad
[ADC]
1 1 1000000 0 0 0

# Format of delays:
# id delay (us)
[DELAYS]
1 12000000
2 2400000
3 1000
4 10000

# Sequence Shapes
[SHAPES]

shape_id 1
num_samples 100030
1
0
0
99997
-1
0
0
27

shape_id 2
num_samples 100030
0
0
100028

