# Pulseq sequence file
# Created by MATLAB mr toolbox

[VERSION]
major 1
minor 3
revision 0

[DEFINITIONS]
offsets_ppm -3 -2.14286 -1.28571 -0.428571 0.428571 1.28571 2.14286 3 
run_m0_scan 0 

# Format of blocks:
#  #  D RF  GX  GY  GZ ADC EXT
[BLOCKS]
  1  1  0   0   0   0  0  0
  2  0  1   0   0   0  0  0
  3  2  0   0   0   0  0  0
  4  0  2   0   0   0  0  0
  5  2  0   0   0   0  0  0
  6  0  3   0   0   0  0  0
  7  2  0   0   0   0  0  0
  8  0  4   0   0   0  0  0
  9  2  0   0   0   0  0  0
 10  0  5   0   0   0  0  0
 11  2  0   0   0   0  0  0
 12  0  6   0   0   0  0  0
 13  2  0   0   0   0  0  0
 14  0  7   0   0   0  0  0
 15  2  0   0   0   0  0  0
 16  0  8   0   0   0  0  0
 17  2  0   0   0   0  0  0
 18  0  9   0   0   0  0  0
 19  2  0   0   0   0  0  0
 20  0 10   0   0   0  0  0
 21  2  0   0   0   0  0  0
 22  0 11   0   0   0  0  0
 23  2  0   0   0   0  0  0
 24  0 12   0   0   0  0  0
 25  2  0   0   0   0  0  0
 26  0 13   0   0   0  0  0
 27  2  0   0   0   0  0  0
 28  0 14   0   0   0  0  0
 29  2  0   0   0   0  0  0
 30  0 15   0   0   0  0  0
 31  2  0   0   0   0  0  0
 32  0 16   0   0   0  0  0
 33  2  0   0   0   0  0  0
 34  0 17   0   0   0  0  0
 35  2  0   0   0   0  0  0
 36  0 18   0   0   0  0  0
 37  2  0   0   0   0  0  0
 38  0 19   0   0   0  0  0
 39  2  0   0   0   0  0  0
 40  0 20   0   0   0  0  0
 41  2  0   0   0   0  0  0
 42  0 21   0   0   0  0  0
 43  2  0   0   0   0  0  0
 44  0 22   0   0   0  0  0
 45  2  0   0   0   0  0  0
 46  0 23   0   0   0  0  0
 47  2  0   0   0   0  0  0
 48  0 24   0   0   0  0  0
 49  2  0   0   0   0  0  0
 50  0 25   0   0   0  0  0
 51  2  0   0   0   0  0  0
 52  0 26   0   0   0  0  0
 53  2  0   0   0   0  0  0
 54  0 27   0   0   0  0  0
 55  2  0   0   0   0  0  0
 56  0 28   0   0   0  0  0
 57  2  0   0   0   0  0  0
 58  0 29   0   0   0  0  0
 59  2  0   0   0   0  0  0
 60  0 30   0   0   0  0  0
 61  2  0   0   0   0  0  0
 62  0 31   0   0   0  0  0
 63  2  0   0   0   0  0  0
 64  0 32   0   0   0  0  0
 65  0  0   1   1   1  0  0
 66  0  0   0   0   0  1  0
 67  1  0   0   0   0  0  0
 68  0 33   0   0   0  0  0
 69  2  0   0   0   0  0  0
 70  0 34   0   0   0  0  0
 71  2  0   0   0   0  0  0
 72  0 35   0   0   0  0  0
 73  2  0   0   0   0  0  0
 74  0 36   0   0   0  0  0
 75  2  0   0   0   0  0  0
 76  0 37   0   0   0  0  0
 77  2  0   0   0   0  0  0
 78  0 38   0   0   0  0  0
 79  2  0   0   0   0  0  0
 80  0 39   0   0   0  0  0
 81  2  0   0   0   0  0  0
 82  0 40   0   0   0  0  0
 83  2  0   0   0   0  0  0
 84  0 41   0   0   0  0  0
 85  2  0   0   0   0  0  0
 86  0 42   0   0   0  0  0
 87  2  0   0   0   0  0  0
 88  0 43   0   0   0  0  0
 89  2  0   0   0   0  0  0
 90  0 44   0   0   0  0  0
 91  2  0   0   0   0  0  0
 92  0 45   0   0   0  0  0
 93  2  0   0   0   0  0  0
 94  0 46   0   0   0  0  0
 95  2  0   0   0   0  0  0
 96  0 47   0   0   0  0  0
 97  2  0   0   0   0  0  0
 98  0 48   0   0   0  0  0
 99  2  0   0   0   0  0  0
100  0 49   0   0   0  0  0
101  2  0   0   0   0  0  0
102  0 50   0   0   0  0  0
103  2  0   0   0   0  0  0
104  0 51   0   0   0  0  0
105  2  0   0   0   0  0  0
106  0 52   0   0   0  0  0
107  2  0   0   0   0  0  0
108  0 53   0   0   0  0  0
109  2  0   0   0   0  0  0
110  0 54   0   0   0  0  0
111  2  0   0   0   0  0  0
112  0 55   0   0   0  0  0
113  2  0   0   0   0  0  0
114  0 56   0   0   0  0  0
115  2  0   0   0   0  0  0
116  0 57   0   0   0  0  0
117  2  0   0   0   0  0  0
118  0 58   0   0   0  0  0
119  2  0   0   0   0  0  0
120  0 59   0   0   0  0  0
121  2  0   0   0   0  0  0
122  0 60   0   0   0  0  0
123  2  0   0   0   0  0  0
124  0 61   0   0   0  0  0
125  2  0   0   0   0  0  0
126  0 62   0   0   0  0  0
127  2  0   0   0   0  0  0
128  0 63   0   0   0  0  0
129  2  0   0   0   0  0  0
130  0 64   0   0   0  0  0
131  0  0   1   1   1  0  0
132  0  0   0   0   0  1  0
133  1  0   0   0   0  0  0
134  0 65   0   0   0  0  0
135  2  0   0   0   0  0  0
136  0 66   0   0   0  0  0
137  2  0   0   0   0  0  0
138  0 67   0   0   0  0  0
139  2  0   0   0   0  0  0
140  0 68   0   0   0  0  0
141  2  0   0   0   0  0  0
142  0 69   0   0   0  0  0
143  2  0   0   0   0  0  0
144  0 70   0   0   0  0  0
145  2  0   0   0   0  0  0
146  0 71   0   0   0  0  0
147  2  0   0   0   0  0  0
148  0 72   0   0   0  0  0
149  2  0   0   0   0  0  0
150  0 73   0   0   0  0  0
151  2  0   0   0   0  0  0
152  0 74   0   0   0  0  0
153  2  0   0   0   0  0  0
154  0 75   0   0   0  0  0
155  2  0   0   0   0  0  0
156  0 76   0   0   0  0  0
157  2  0   0   0   0  0  0
158  0 77   0   0   0  0  0
159  2  0   0   0   0  0  0
160  0 78   0   0   0  0  0
161  2  0   0   0   0  0  0
162  0 79   0   0   0  0  0
163  2  0   0   0   0  0  0
164  0 80   0   0   0  0  0
165  2  0   0   0   0  0  0
166  0 81   0   0   0  0  0
167  2  0   0   0   0  0  0
168  0 82   0   0   0  0  0
169  2  0   0   0   0  0  0
170  0 83   0   0   0  0  0
171  2  0   0   0   0  0  0
172  0 84   0   0   0  0  0
173  2  0   0   0   0  0  0
174  0 85   0   0   0  0  0
175  2  0   0   0   0  0  0
176  0 86   0   0   0  0  0
177  2  0   0   0   0  0  0
178  0 87   0   0   0  0  0
179  2  0   0   0   0  0  0
180  0 88   0   0   0  0  0
181  2  0   0   0   0  0  0
182  0 89   0   0   0  0  0
183  2  0   0   0   0  0  0
184  0 90   0   0   0  0  0
185  2  0   0   0   0  0  0
186  0 91   0   0   0  0  0
187  2  0   0   0   0  0  0
188  0 92   0   0   0  0  0
189  2  0   0   0   0  0  0
190  0 93   0   0   0  0  0
191  2  0   0   0   0  0  0
192  0 94   0   0   0  0  0
193  2  0   0   0   0  0  0
194  0 95   0   0   0  0  0
195  2  0   0   0   0  0  0
196  0 96   0   0   0  0  0
197  0  0   1   1   1  0  0
198  0  0   0   0   0  1  0
199  1  0   0   0   0  0  0
200  0 97   0   0   0  0  0
201  2  0   0   0   0  0  0
202  0 98   0   0   0  0  0
203  2  0   0   0   0  0  0
204  0 99   0   0   0  0  0
205  2  0   0   0   0  0  0
206  0 100   0   0   0  0  0
207  2  0   0   0   0  0  0
208  0 101   0   0   0  0  0
209  2  0   0   0   0  0  0
210  0 102   0   0   0  0  0
211  2  0   0   0   0  0  0
212  0 103   0   0   0  0  0
213  2  0   0   0   0  0  0
214  0 104   0   0   0  0  0
215  2  0   0   0   0  0  0
216  0 105   0   0   0  0  0
217  2  0   0   0   0  0  0
218  0 106   0   0   0  0  0
219  2  0   0   0   0  0  0
220  0 107   0   0   0  0  0
221  2  0   0   0   0  0  0
222  0 108   0   0   0  0  0
223  2  0   0   0   0  0  0
224  0 109   0   0   0  0  0
225  2  0   0   0   0  0  0
226  0 110   0   0   0  0  0
227  2  0   0   0   0  0  0
228  0 111   0   0   0  0  0
229  2  0   0   0   0  0  0
230  0 112   0   0   0  0  0
231  2  0   0   0   0  0  0
232  0 113   0   0   0  0  0
233  2  0   0   0   0  0  0
234  0 114   0   0   0  0  0
235  2  0   0   0   0  0  0
236  0 115   0   0   0  0  0
237  2  0   0   0   0  0  0
238  0 116   0   0   0  0  0
239  2  0   0   0   0  0  0
240  0 117   0   0   0  0  0
241  2  0   0   0   0  0  0
242  0 118   0   0   0  0  0
243  2  0   0   0   0  0  0
244  0 119   0   0   0  0  0
245  2  0   0   0   0  0  0
246  0 120   0   0   0  0  0
247  2  0   0   0   0  0  0
248  0 121   0   0   0  0  0
249  2  0   0   0   0  0  0
250  0 122   0   0   0  0  0
251  2  0   0   0   0  0  0
252  0 123   0   0   0  0  0
253  2  0   0   0   0  0  0
254  0 124   0   0   0  0  0
255  2  0   0   0   0  0  0
256  0 125   0   0   0  0  0
257  2  0   0   0   0  0  0
258  0 126   0   0   0  0  0
259  2  0   0   0   0  0  0
260  0 127   0   0   0  0  0
261  2  0   0   0   0  0  0
262  0 128   0   0   0  0  0
263  0  0   1   1   1  0  0
264  0  0   0   0   0  1  0
265  1  0   0   0   0  0  0
266  0 129   0   0   0  0  0
267  2  0   0   0   0  0  0
268  0 130   0   0   0  0  0
269  2  0   0   0   0  0  0
270  0 131   0   0   0  0  0
271  2  0   0   0   0  0  0
272  0 132   0   0   0  0  0
273  2  0   0   0   0  0  0
274  0 133   0   0   0  0  0
275  2  0   0   0   0  0  0
276  0 134   0   0   0  0  0
277  2  0   0   0   0  0  0
278  0 135   0   0   0  0  0
279  2  0   0   0   0  0  0
280  0 136   0   0   0  0  0
281  2  0   0   0   0  0  0
282  0 137   0   0   0  0  0
283  2  0   0   0   0  0  0
284  0 138   0   0   0  0  0
285  2  0   0   0   0  0  0
286  0 139   0   0   0  0  0
287  2  0   0   0   0  0  0
288  0 140   0   0   0  0  0
289  2  0   0   0   0  0  0
290  0 141   0   0   0  0  0
291  2  0   0   0   0  0  0
292  0 142   0   0   0  0  0
293  2  0   0   0   0  0  0
294  0 143   0   0   0  0  0
295  2  0   0   0   0  0  0
296  0 144   0   0   0  0  0
297  2  0   0   0   0  0  0
298  0 145   0   0   0  0  0
299  2  0   0   0   0  0  0
300  0 146   0   0   0  0  0
301  2  0   0   0   0  0  0
302  0 147   0   0   0  0  0
303  2  0   0   0   0  0  0
304  0 148   0   0   0  0  0
305  2  0   0   0   0  0  0
306  0 149   0   0   0  0  0
307  2  0   0   0   0  0  0
308  0 150   0   0   0  0  0
309  2  0   0   0   0  0  0
310  0 151   0   0   0  0  0
311  2  0   0   0   0  0  0
312  0 152   0   0   0  0  0
313  2  0   0   0   0  0  0
314  0 153   0   0   0  0  0
315  2  0   0   0   0  0  0
316  0 154   0   0   0  0  0
317  2  0   0   0   0  0  0
318  0 155   0   0   0  0  0
319  2  0   0   0   0  0  0
320  0 156   0   0   0  0  0
321  2  0   0   0   0  0  0
322  0 157   0   0   0  0  0
323  2  0   0   0   0  0  0
324  0 158   0   0   0  0  0
325  2  0   0   0   0  0  0
326  0 159   0   0   0  0  0
327  2  0   0   0   0  0  0
328  0 160   0   0   0  0  0
329  0  0   1   1   1  0  0
330  0  0   0   0   0  1  0
331  1  0   0   0   0  0  0
332  0 161   0   0   0  0  0
333  2  0   0   0   0  0  0
334  0 162   0   0   0  0  0
335  2  0   0   0   0  0  0
336  0 163   0   0   0  0  0
337  2  0   0   0   0  0  0
338  0 164   0   0   0  0  0
339  2  0   0   0   0  0  0
340  0 165   0   0   0  0  0
341  2  0   0   0   0  0  0
342  0 166   0   0   0  0  0
343  2  0   0   0   0  0  0
344  0 167   0   0   0  0  0
345  2  0   0   0   0  0  0
[RF]
1      167.584 1 2 100 -894.104 0
2      167.584 1 2 100 -894.104 1.85778
3      167.584 1 2 100 -894.104 3.71555
4      167.584 1 2 100 -894.104 5.57333
5      167.584 1 2 100 -894.104 1.14792
6      167.584 1 2 100 -894.104 3.00569
7      167.584 1 2 100 -894.104 4.86347
8      167.584 1 2 100 -894.104 0.438056
9      167.584 1 2 100 -894.104 2.29583
10      167.584 1 2 100 -894.104 4.15361
11      167.584 1 2 100 -894.104 6.01138
12      167.584 1 2 100 -894.104 1.58597
13      167.584 1 2 100 -894.104 3.44375
14      167.584 1 2 100 -894.104 5.30152
15      167.584 1 2 100 -894.104 0.876111
16      167.584 1 2 100 -894.104 2.73389
17      167.584 1 2 100 -894.104 4.59166
18      167.584 1 2 100 -894.104 0.166252
19      167.584 1 2 100 -894.104 2.02403
20      167.584 1 2 100 -894.104 3.8818
21      167.584 1 2 100 -894.104 5.73958
22      167.584 1 2 100 -894.104 1.31417
23      167.584 1 2 100 -894.104 3.17194
24      167.584 1 2 100 -894.104 5.02972
25      167.584 1 2 100 -894.104 0.604307
26      167.584 1 2 100 -894.104 2.46208
27      167.584 1 2 100 -894.104 4.31986
28      167.584 1 2 100 -894.104 6.17763
29      167.584 1 2 100 -894.104 1.75222
30      167.584 1 2 100 -894.104 3.61
31      167.584 1 2 100 -894.104 5.46777
32      167.584 1 2 100 -894.104 1.04236
33      167.584 1 2 100 -638.646 0
34      167.584 1 2 100 -638.646 0.429384
35      167.584 1 2 100 -638.646 0.858769
36      167.584 1 2 100 -638.646 1.28815
37      167.584 1 2 100 -638.646 1.71754
38      167.584 1 2 100 -638.646 2.14692
39      167.584 1 2 100 -638.646 2.57631
40      167.584 1 2 100 -638.646 3.00569
41      167.584 1 2 100 -638.646 3.43508
42      167.584 1 2 100 -638.646 3.86446
43      167.584 1 2 100 -638.646 4.29384
44      167.584 1 2 100 -638.646 4.72323
45      167.584 1 2 100 -638.646 5.15261
46      167.584 1 2 100 -638.646 5.582
47      167.584 1 2 100 -638.646 6.01138
48      167.584 1 2 100 -638.646 0.15758
49      167.584 1 2 100 -638.646 0.586965
50      167.584 1 2 100 -638.646 1.01635
51      167.584 1 2 100 -638.646 1.44573
52      167.584 1 2 100 -638.646 1.87512
53      167.584 1 2 100 -638.646 2.3045
54      167.584 1 2 100 -638.646 2.73389
55      167.584 1 2 100 -638.646 3.16327
56      167.584 1 2 100 -638.646 3.59266
57      167.584 1 2 100 -638.646 4.02204
58      167.584 1 2 100 -638.646 4.45142
59      167.584 1 2 100 -638.646 4.88081
60      167.584 1 2 100 -638.646 5.31019
61      167.584 1 2 100 -638.646 5.73958
62      167.584 1 2 100 -638.646 6.16896
63      167.584 1 2 100 -638.646 0.315161
64      167.584 1 2 100 -638.646 0.744545
65      167.584 1 2 100 -383.188 0
66      167.584 1 2 100 -383.188 5.28418
67      167.584 1 2 100 -383.188 4.28517
68      167.584 1 2 100 -383.188 3.28617
69      167.584 1 2 100 -383.188 2.28716
70      167.584 1 2 100 -383.188 1.28815
71      167.584 1 2 100 -383.188 0.289147
72      167.584 1 2 100 -383.188 5.57333
73      167.584 1 2 100 -383.188 4.57432
74      167.584 1 2 100 -383.188 3.57531
75      167.584 1 2 100 -383.188 2.57631
76      167.584 1 2 100 -383.188 1.5773
77      167.584 1 2 100 -383.188 0.578293
78      167.584 1 2 100 -383.188 5.86247
79      167.584 1 2 100 -383.188 4.86347
80      167.584 1 2 100 -383.188 3.86446
81      167.584 1 2 100 -383.188 2.86545
82      167.584 1 2 100 -383.188 1.86645
83      167.584 1 2 100 -383.188 0.86744
84      167.584 1 2 100 -383.188 6.15162
85      167.584 1 2 100 -383.188 5.15261
86      167.584 1 2 100 -383.188 4.15361
87      167.584 1 2 100 -383.188 3.1546
88      167.584 1 2 100 -383.188 2.15559
89      167.584 1 2 100 -383.188 1.15659
90      167.584 1 2 100 -383.188 0.15758
91      167.584 1 2 100 -383.188 5.44176
92      167.584 1 2 100 -383.188 4.44275
93      167.584 1 2 100 -383.188 3.44375
94      167.584 1 2 100 -383.188 2.44474
95      167.584 1 2 100 -383.188 1.44573
96      167.584 1 2 100 -383.188 0.446727
97      167.584 1 2 100 -127.729 0
98      167.584 1 2 100 -127.729 3.85579
99      167.584 1 2 100 -127.729 1.42839
100      167.584 1 2 100 -127.729 5.28418
101      167.584 1 2 100 -127.729 2.85678
102      167.584 1 2 100 -127.729 0.429384
103      167.584 1 2 100 -127.729 4.28517
104      167.584 1 2 100 -127.729 1.85778
105      167.584 1 2 100 -127.729 5.71356
106      167.584 1 2 100 -127.729 3.28617
107      167.584 1 2 100 -127.729 0.858769
108      167.584 1 2 100 -127.729 4.71456
109      167.584 1 2 100 -127.729 2.28716
110      167.584 1 2 100 -127.729 6.14295
111      167.584 1 2 100 -127.729 3.71555
112      167.584 1 2 100 -127.729 1.28815
113      167.584 1 2 100 -127.729 5.14394
114      167.584 1 2 100 -127.729 2.71654
115      167.584 1 2 100 -127.729 0.289147
116      167.584 1 2 100 -127.729 4.14493
117      167.584 1 2 100 -127.729 1.71754
118      167.584 1 2 100 -127.729 5.57333
119      167.584 1 2 100 -127.729 3.14593
120      167.584 1 2 100 -127.729 0.718531
121      167.584 1 2 100 -127.729 4.57432
122      167.584 1 2 100 -127.729 2.14692
123      167.584 1 2 100 -127.729 6.00271
124      167.584 1 2 100 -127.729 3.57531
125      167.584 1 2 100 -127.729 1.14792
126      167.584 1 2 100 -127.729 5.0037
127      167.584 1 2 100 -127.729 2.57631
128      167.584 1 2 100 -127.729 0.148909
129      167.584 1 2 100 127.729 0
130      167.584 1 2 100 127.729 2.4274
131      167.584 1 2 100 127.729 4.85479
132      167.584 1 2 100 127.729 0.999006
133      167.584 1 2 100 127.729 3.4264
134      167.584 1 2 100 127.729 5.8538
135      167.584 1 2 100 127.729 1.99801
136      167.584 1 2 100 127.729 4.42541
137      167.584 1 2 100 127.729 0.569622
138      167.584 1 2 100 127.729 2.99702
139      167.584 1 2 100 127.729 5.42442
140      167.584 1 2 100 127.729 1.56863
141      167.584 1 2 100 127.729 3.99603
142      167.584 1 2 100 127.729 0.140238
143      167.584 1 2 100 127.729 2.56763
144      167.584 1 2 100 127.729 4.99503
145      167.584 1 2 100 127.729 1.13924
146      167.584 1 2 100 127.729 3.56664
147      167.584 1 2 100 127.729 5.99404
148      167.584 1 2 100 127.729 2.13825
149      167.584 1 2 100 127.729 4.56565
150      167.584 1 2 100 127.729 0.70986
151      167.584 1 2 100 127.729 3.13726
152      167.584 1 2 100 127.729 5.56465
153      167.584 1 2 100 127.729 1.70887
154      167.584 1 2 100 127.729 4.13626
155      167.584 1 2 100 127.729 0.280475
156      167.584 1 2 100 127.729 2.70787
157      167.584 1 2 100 127.729 5.13527
158      167.584 1 2 100 127.729 1.27948
159      167.584 1 2 100 127.729 3.70688
160      167.584 1 2 100 127.729 6.13428
161      167.584 1 2 100 383.188 0
162      167.584 1 2 100 383.188 0.999006
163      167.584 1 2 100 383.188 1.99801
164      167.584 1 2 100 383.188 2.99702
165      167.584 1 2 100 383.188 3.99603
166      167.584 1 2 100 383.188 4.99503
167      167.584 1 2 100 383.188 5.99404
168      167.584 1 2 100 383.188 0.70986
169      167.584 1 2 100 383.188 1.70887
170      167.584 1 2 100 383.188 2.70787
171      167.584 1 2 100 383.188 3.70688
172      167.584 1 2 100 383.188 4.70589
173      167.584 1 2 100 383.188 5.70489
174      167.584 1 2 100 383.188 0.420713
175      167.584 1 2 100 383.188 1.41972
176      167.584 1 2 100 383.188 2.41873
177      167.584 1 2 100 383.188 3.41773
178      167.584 1 2 100 383.188 4.41674
179      167.584 1 2 100 383.188 5.41575
180      167.584 1 2 100 383.188 0.131566
181      167.584 1 2 100 383.188 1.13057
182      167.584 1 2 100 383.188 2.12958
183      167.584 1 2 100 383.188 3.12859
184      167.584 1 2 100 383.188 4.12759
185      167.584 1 2 100 383.188 5.1266
186      167.584 1 2 100 383.188 6.1256
187      167.584 1 2 100 383.188 0.841426
188      167.584 1 2 100 383.188 1.84043
189      167.584 1 2 100 383.188 2.83944
190      167.584 1 2 100 383.188 3.83845
191      167.584 1 2 100 383.188 4.83745
192      167.584 1 2 100 383.188 5.83646
193      167.584 1 2 100 638.646 0
194      167.584 1 2 100 638.646 5.8538
195      167.584 1 2 100 638.646 5.42442
196      167.584 1 2 100 638.646 4.99503
197      167.584 1 2 100 638.646 4.56565
198      167.584 1 2 100 638.646 4.13626
199      167.584 1 2 100 638.646 3.70688
200      167.584 1 2 100 638.646 3.27749
201      167.584 1 2 100 638.646 2.84811
202      167.584 1 2 100 638.646 2.41873
203      167.584 1 2 100 638.646 1.98934
204      167.584 1 2 100 638.646 1.55996
205      167.584 1 2 100 638.646 1.13057
206      167.584 1 2 100 638.646 0.701188
207      167.584 1 2 100 638.646 0.271804
208      167.584 1 2 100 638.646 6.1256
209      167.584 1 2 100 638.646 5.69622
210      167.584 1 2 100 638.646 5.26684
211      167.584 1 2 100 638.646 4.83745
212      167.584 1 2 100 638.646 4.40807
213      167.584 1 2 100 638.646 3.97868
214      167.584 1 2 100 638.646 3.5493
215      167.584 1 2 100 638.646 3.11991
216      167.584 1 2 100 638.646 2.69053
217      167.584 1 2 100 638.646 2.26115
218      167.584 1 2 100 638.646 1.83176
219      167.584 1 2 100 638.646 1.40238
220      167.584 1 2 100 638.646 0.972992
221      167.584 1 2 100 638.646 0.543608
222      167.584 1 2 100 638.646 0.114224
223      167.584 1 2 100 638.646 5.96802
224      167.584 1 2 100 638.646 5.53864
225      167.584 1 2 100 894.104 0
226      167.584 1 2 100 894.104 4.42541
227      167.584 1 2 100 894.104 2.56763
228      167.584 1 2 100 894.104 0.70986
229      167.584 1 2 100 894.104 5.13527
230      167.584 1 2 100 894.104 3.27749
231      167.584 1 2 100 894.104 1.41972
232      167.584 1 2 100 894.104 5.84513
233      167.584 1 2 100 894.104 3.98735
234      167.584 1 2 100 894.104 2.12958
235      167.584 1 2 100 894.104 0.271804
236      167.584 1 2 100 894.104 4.69721
237      167.584 1 2 100 894.104 2.83944
238      167.584 1 2 100 894.104 0.981664
239      167.584 1 2 100 894.104 5.40707
240      167.584 1 2 100 894.104 3.5493
241      167.584 1 2 100 894.104 1.69152
242      167.584 1 2 100 894.104 6.11693
243      167.584 1 2 100 894.104 4.25916
244      167.584 1 2 100 894.104 2.40138
245      167.584 1 2 100 894.104 0.543608
246      167.584 1 2 100 894.104 4.96902
247      167.584 1 2 100 894.104 3.11124
248      167.584 1 2 100 894.104 1.25347
249      167.584 1 2 100 894.104 5.67888
250      167.584 1 2 100 894.104 3.8211
251      167.584 1 2 100 894.104 1.96333
252      167.584 1 2 100 894.104 0.105552
253      167.584 1 2 100 894.104 4.53096
254      167.584 1 2 100 894.104 2.67319
255      167.584 1 2 100 894.104 0.815412
256      167.584 1 2 100 894.104 5.24082

# Format of trapezoid gradients:
# id amplitude rise flat fall delay
# ..      Hz/m   us   us   us    us
[TRAP]
 1  1.36243e+06 1000 4500 1000   0

# Format of ADC events:
# id num dwell delay freq phase
# ..  ..    ns    us   Hz   rad
[ADC]
1 1 1000000 0 0 0

# Format of delays:
# id delay (us)
[DELAYS]
1 2000000
2 25000

# Sequence Shapes
[SHAPES]

shape_id 1
num_samples 50030
0
0
1
1e-07
0
0
0
1e-07
0
1e-07
1e-07
2
0
1e-07
2e-07
1e-07
1e-07
1
2e-07
1e-07
2e-07
2e-07
0
1e-07
2e-07
2e-07
5
3e-07
2e-07
3e-07
2e-07
3e-07
3e-07
0
2e-07
3e-07
3e-07
3
4e-07
3e-07
3e-07
0
4e-07
4e-07
0
3e-07
4e-07
4e-07
1
3e-07
4e-07
5e-07
4e-07
4e-07
1
5e-07
4e-07
5e-07
4e-07
5e-07
5e-07
7
6e-07
5e-07
6e-07
6e-07
0
5e-07
6e-07
6e-07
5
7e-07
6e-07
6e-07
0
7e-07
7e-07
0
6e-07
7e-07
7e-07
5
8e-07
7e-07
8e-07
7e-07
8e-07
7e-07
8e-07
8e-07
5
9e-07
8e-07
8e-07
0
9e-07
9e-07
0
8e-07
9e-07
9e-07
5
1e-06
9e-07
9e-07
0
1e-06
1e-06
0
9e-07
1e-06
1e-06
6
1.1e-06
1e-06
1.1e-06
1e-06
1.1e-06
1.1e-06
7
1.2e-06
1.1e-06
1.2e-06
1.1e-06
1.2e-06
1.2e-06
0
1.1e-06
1.2e-06
1.2e-06
1
1.3e-06
1.2e-06
1.2e-06
1
1.3e-06
1.2e-06
1.3e-06
1.3e-06
0
1.2e-06
1.3e-06
1.3e-06
4
1.4e-06
1.3e-06
1.4e-06
1.3e-06
1.4e-06
1.3e-06
1.4e-06
1.4e-06
6
1.5e-06
1.4e-06
1.5e-06
1.4e-06
1.5e-06
1.5e-06
0
1.4e-06
1.5e-06
1.5e-06
1
1.6e-06
1.5e-06
1.5e-06
1
1.6e-06
1.5e-06
1.6e-06
1.6e-06
0
1.5e-06
1.6e-06
1.6e-06
4
1.7e-06
1.6e-06
1.6e-06
0
1.7e-06
1.6e-06
1.7e-06
1.7e-06
1
1.6e-06
1.7e-06
1.7e-06
0
1.8e-06
1.7e-06
1.7e-06
1
1.8e-06
1.7e-06
1.8e-06
1.7e-06
1.8e-06
1.8e-06
6
1.9e-06
1.8e-06
1.9e-06
1.8e-06
1.9e-06
1.9e-06
0
1.8e-06
1.9e-06
1.9e-06
2
2e-06
1.9e-06
1.9e-06
0
2e-06
1.9e-06
2e-06
1.9e-06
2e-06
2e-06
7
2.1e-06
2e-06
2.1e-06
2.1e-06
0
2e-06
2.1e-06
2.1e-06
5
2.2e-06
2.1e-06
2.2e-06
2.1e-06
2.2e-06
2.2e-06
0
2.1e-06
2.2e-06
2.2e-06
3
2.3e-06
2.2e-06
2.2e-06
0
2.3e-06
2.2e-06
2.3e-06
2.3e-06
1
2.2e-06
2.3e-06
2.3e-06
1
2.4e-06
2.3e-06
2.3e-06
0
2.4e-06
2.3e-06
2.4e-06
2.3e-06
2.4e-06
2.4e-06
1
2.3e-06
2.5e-06
2.4e-06
2.4e-06
2
2.5e-06
2.4e-06
2.5e-06
2.4e-06
2.5e-06
2.5e-06
7
2.6e-06
2.5e-06
2.6e-06
2.5e-06
2.6e-06
2.6e-06
7
2.7e-06
2.6e-06
2.7e-06
2.6e-06
2.7e-06
2.7e-06
7
2.8e-06
2.7e-06
2.8e-06
2.7e-06
2.8e-06
2.8e-06
7
2.9e-06
2.8e-06
2.9e-06
2.8e-06
2.9e-06
2.9e-06
2
2.8e-06
3e-06
2.9e-06
2.9e-06
1
3e-06
2.9e-06
3e-06
2.9e-06
3e-06
3e-06
0
2.9e-06
3e-06
3e-06
1
3.1e-06
3e-06
3e-06
1
3.1e-06
3e-06
3.1e-06
3.1e-06
0
3e-06
3.1e-06
3.1e-06
3
3.2e-06
3.1e-06
3.1e-06
0
3.2e-06
3.1e-06
3.2e-06
3.1e-06
3.2e-06
3.2e-06
5
3.3e-06
3.2e-06
3.2e-06
0
3.3e-06
3.3e-06
0
3.2e-06
3.3e-06
3.3e-06
6
3.4e-06
3.3e-06
3.4e-06
3.3e-06
3.4e-06
3.4e-06
0
3.3e-06
3.4e-06
3.4e-06
2
3.5e-06
3.4e-06
3.4e-06
0
3.5e-06
3.4e-06
3.5e-06
3.5e-06
0
3.4e-06
3.5e-06
3.5e-06
4
3.6e-06
3.5e-06
3.5e-06
0
3.6e-06
3.5e-06
3.6e-06
3.6e-06
8
3.7e-06
3.6e-06
3.7e-06
3.7e-06
0
3.6e-06
3.7e-06
3.7e-06
4
3.8e-06
3.7e-06
3.7e-06
0
3.8e-06
3.7e-06
3.8e-06
3.8e-06
8
3.9e-06
3.8e-06
3.9e-06
3.9e-06
0
3.8e-06
3.9e-06
3.9e-06
4
4e-06
3.9e-06
3.9e-06
0
4e-06
3.9e-06
4e-06
4e-06
1
3.9e-06
4e-06
4e-06
1
4.1e-06
4e-06
4e-06
0
4.1e-06
4e-06
4.1e-06
4e-06
4.1e-06
4.1e-06
6
4.2e-06
4.1e-06
4.1e-06
0
4.2e-06
4.2e-06
0
4.1e-06
4.2e-06
4.2e-06
4
4.3e-06
4.2e-06
4.2e-06
0
4.3e-06
4.2e-06
4.3e-06
4.3e-06
0
4.2e-06
4.3e-06
4.3e-06
2
4.4e-06
4.3e-06
4.3e-06
1
4.4e-06
4.4e-06
0
4.3e-06
4.4e-06
4.4e-06
0
4.3e-06
4.4e-06
4.4e-06
0
4.5e-06
4.4e-06
4.4e-06
1
4.5e-06
4.4e-06
4.5e-06
4.4e-06
4.5e-06
4.5e-06
7
4.6e-06
4.5e-06
4.6e-06
4.5e-06
4.6e-06
4.6e-06
7
4.7e-06
4.6e-06
4.7e-06
4.6e-06
4.7e-06
4.7e-06
6
4.8e-06
4.7e-06
4.7e-06
0
4.8e-06
4.8e-06
0
4.7e-06
4.8e-06
4.8e-06
5
4.9e-06
4.8e-06
4.8e-06
0
4.9e-06
4.8e-06
4.9e-06
4.9e-06
7
5e-06
4.9e-06
5e-06
4.9e-06
5e-06
5e-06
7
5.1e-06
5e-06
5.1e-06
5e-06
5.1e-06
5.1e-06
1
5e-06
5.1e-06
5.2e-06
5.1e-06
5.1e-06
1
5.2e-06
5.1e-06
5.2e-06
5.1e-06
5.2e-06
5.2e-06
0
5.1e-06
5.2e-06
5.2e-06
2
5.3e-06
5.2e-06
5.2e-06
0
5.3e-06
5.2e-06
5.3e-06
5.3e-06
0
5.2e-06
5.3e-06
5.3e-06
4
5.4e-06
5.3e-06
5.3e-06
0
5.4e-06
5.4e-06
0
5.3e-06
5.4e-06
5.4e-06
6
5.5e-06
5.4e-06
5.5e-06
5.4e-06
5.5e-06
5.5e-06
0
5.4e-06
5.5e-06
5.5e-06
1
5.6e-06
5.5e-06
5.5e-06
1
5.6e-06
5.5e-06
5.6e-06
5.6e-06
0
5.5e-06
5.6e-06
5.6e-06
4
5.7e-06
5.6e-06
5.6e-06
0
5.7e-06
5.6e-06
5.7e-06
5.7e-06
2
5.6e-06
5.8e-06
5.7e-06
5.7e-06
2
5.8e-06
5.7e-06
5.8e-06
5.8e-06
0
5.7e-06
5.8e-06
5.8e-06
4
5.9e-06
5.8e-06
5.8e-06
0
5.9e-06
5.8e-06
5.9e-06
5.9e-06
1
5.8e-06
5.9e-06
5.9e-06
0
6e-06
5.9e-06
5.9e-06
1
6e-06
5.9e-06
6e-06
5.9e-06
6e-06
6e-06
6
6.1e-06
6e-06
6.1e-06
6e-06
6.1e-06
6e-06
6.1e-06
6.1e-06
4
6.2e-06
6.1e-06
6.1e-06
0
6.2e-06
6.1e-06
6.2e-06
6.2e-06
1
6.1e-06
6.2e-06
6.2e-06
1
6.3e-06
6.2e-06
6.2e-06
0
6.3e-06
6.2e-06
6.3e-06
6.2e-06
6.3e-06
6.3e-06
1
6.2e-06
6.4e-06
6.3e-06
6.3e-06
2
6.4e-06
6.3e-06
6.4e-06
6.3e-06
6.4e-06
6.4e-06
7
6.5e-06
6.4e-06
6.5e-06
6.4e-06
6.5e-06
6.5e-06
7
6.6e-06
6.5e-06
6.6e-06
6.5e-06
6.6e-06
6.6e-06
7
6.7e-06
6.6e-06
6.7e-06
6.6e-06
6.7e-06
6.7e-06
7
6.8e-06
6.7e-06
6.8e-06
6.7e-06
6.8e-06
6.8e-06
7
6.9e-06
6.8e-06
6.9e-06
6.8e-06
6.9e-06
6.9e-06
0
6.8e-06
6.9e-06
6.9e-06
1
7e-06
6.9e-06
6.9e-06
1
7e-06
6.9e-06
7e-06
7e-06
0
6.9e-06
7e-06
7e-06
4
7.1e-06
7e-06
7.1e-06
7e-06
7.1e-06
7e-06
7.1e-06
7.1e-06
6
7.2e-06
7.1e-06
7.2e-06
7.1e-06
7.2e-06
7.2e-06
0
7.1e-06
7.2e-06
7.2e-06
1
7.3e-06
7.2e-06
7.2e-06
1
7.3e-06
7.2e-06
7.3e-06
7.2e-06
7.3e-06
7.3e-06
6
7.4e-06
7.3e-06
7.4e-06
7.3e-06
7.4e-06
7.4e-06
1
7.3e-06
7.4e-06
7.4e-06
1
7.5e-06
7.4e-06
7.4e-06
0
7.5e-06
7.4e-06
7.5e-06
7.4e-06
7.5e-06
7.5e-06
6
7.6e-06
7.5e-06
7.6e-06
7.5e-06
7.6e-06
7.5e-06
7.6e-06
7.6e-06
4
7.7e-06
7.6e-06
7.6e-06
0
7.7e-06
7.6e-06
7.7e-06
7.7e-06
0
7.6e-06
7.7e-06
7.7e-06
2
7.8e-06
7.7e-06
7.7e-06
0
7.8e-06
7.7e-06
7.8e-06
7.7e-06
7.8e-06
7.8e-06
0
7.7e-06
7.8e-06
7.8e-06
0
7.9e-06
7.8e-06
7.8e-06
1
7.9e-06
7.8e-06
7.9e-06
7.8e-06
7.9e-06
7.9e-06
7
8e-06
7.9e-06
8e-06
7.9e-06
8e-06
8e-06
7
8.1e-06
8e-06
8.1e-06
8e-06
8.1e-06
8.1e-06
1
8e-06
8.1e-06
8.1e-06
0
8.2e-06
8.1e-06
8.1e-06
0
8.2e-06
8.1e-06
8.1e-06
0
8.2e-06
8.2e-06
1
8.1e-06
8.2e-06
8.2e-06
2
8.3e-06
8.2e-06
8.2e-06
0
8.3e-06
8.2e-06
8.3e-06
8.3e-06
0
8.2e-06
8.3e-06
8.3e-06
4
8.4e-06
8.3e-06
8.3e-06
0
8.4e-06
8.4e-06
0
8.3e-06
8.4e-06
8.4e-06
6
8.5e-06
8.4e-06
8.5e-06
8.4e-06
8.5e-06
8.5e-06
0
8.4e-06
8.5e-06
8.5e-06
2
8.6e-06
8.5e-06
8.5e-06
0
8.6e-06
8.5e-06
8.6e-06
8.5e-06
8.6e-06
8.6e-06
6
8.7e-06
8.6e-06
8.6e-06
0
8.7e-06
8.7e-06
0
8.6e-06
8.7e-06
8.7e-06
4
8.8e-06
8.7e-06
8.7e-06
0
8.8e-06
8.7e-06
8.8e-06
8.8e-06
0
8.7e-06
8.8e-06
8.8e-06
2
8.9e-06
8.8e-06
8.8e-06
0
8.9e-06
8.8e-06
8.9e-06
8.8e-06
8.9e-06
8.9e-06
1
8.8e-06
8.9e-06
9e-06
8.9e-06
8.9e-06
1
9e-06
8.9e-06
9e-06
8.9e-06
9e-06
9e-06
7
9.1e-06
9e-06
9.1e-06
9e-06
9.1e-06
9.1e-06
7
9.2e-06
9.1e-06
9.2e-06
9.1e-06
9.2e-06
9.2e-06
0
9.1e-06
9.2e-06
9.2e-06
1
9.3e-06
9.2e-06
9.2e-06
1
9.3e-06
9.2e-06
9.3e-06
9.3e-06
0
9.2e-06
9.3e-06
9.3e-06
3
9.4e-06
9.3e-06
9.3e-06
0
9.4e-06
9.3e-06
9.4e-06
9.3e-06
9.4e-06
9.4e-06
6
9.5e-06
9.4e-06
9.5e-06
9.4e-06
9.5e-06
9.5e-06
1
9.4e-06
9.5e-06
9.5e-06
0
9.6e-06
9.5e-06
9.5e-06
1
9.6e-06
9.5e-06
9.6e-06
9.5e-06
9.6e-06
9.6e-06
6
9.7e-06
9.6e-06
9.7e-06
9.6e-06
9.7e-06
9.7e-06
0
9.6e-06
9.7e-06
9.7e-06
3
9.8e-06
9.7e-06
9.7e-06
0
9.8e-06
9.7e-06
9.8e-06
9.8e-06
1
9.7e-06
9.8e-06
9.8e-06
1
9.9e-06
9.8e-06
9.8e-06
0
9.9e-06
9.8e-06
9.9e-06
9.8e-06
9.9e-06
9.9e-06
1
9.8e-06
9.9e-06
1e-05
9.9e-06
9.9e-06
1
1e-05
9.9e-06
1e-05
9.9e-06
1e-05
1e-05
0
9.9e-06
1e-05
1e-05
1
1.01e-05
1e-05
1e-05
1
1.01e-05
1e-05
1.01e-05
1.01e-05
1
1e-05
1.01e-05
1.01e-05
2
1.02e-05
1.01e-05
1.01e-05
0
1.02e-05
1.01e-05
1.02e-05
1.02e-05
0
1.01e-05
1.02e-05
1.02e-05
4
1.03e-05
1.02e-05
1.02e-05
0
1.03e-05
1.02e-05
1.03e-05
1.03e-05
8
1.04e-05
1.03e-05
1.04e-05
1.04e-05
0
1.03e-05
1.04e-05
1.04e-05
4
1.05e-05
1.04e-05
1.04e-05
0
1.05e-05
1.04e-05
1.05e-05
1.05e-05
0
1.04e-05
1.05e-05
1.05e-05
2
1.06e-05
1.05e-05
1.05e-05
0
1.06e-05
1.05e-05
1.06e-05
1.05e-05
1.06e-05
1.06e-05
1
1.05e-05
1.07e-05
1.06e-05
1.06e-05
2
1.07e-05
1.06e-05
1.07e-05
1.06e-05
1.07e-05
1.07e-05
7
1.08e-05
1.07e-05
1.08e-05
1.07e-05
1.08e-05
1.08e-05
1
1.07e-05
1.08e-05
1.09e-05
1.08e-05
1.08e-05
1
1.09e-05
1.08e-05
1.08e-05
0
1.09e-05
1.09e-05
1
1.08e-05
1.09e-05
1.09e-05
2
1.1e-05
1.09e-05
1.09e-05
0
1.1e-05
1.09e-05
1.1e-05
1.09e-05
1.1e-05
1.1e-05
6
1.11e-05
1.1e-05
1.11e-05
1.1e-05
1.11e-05
1.11e-05
0
1.1e-05
1.11e-05
1.11e-05
2
1.12e-05
1.11e-05
1.11e-05
0
1.12e-05
1.11e-05
1.12e-05
1.11e-05
1.12e-05
1.12e-05
7
1.13e-05
1.12e-05
1.13e-05
1.12e-05
1.13e-05
1.13e-05
6
1.14e-05
1.13e-05
1.13e-05
0
1.14e-05
1.14e-05
0
1.13e-05
1.14e-05
1.14e-05
6
1.15e-05
1.14e-05
1.15e-05
1.14e-05
1.15e-05
1.15e-05
7
1.16e-05
1.15e-05
1.16e-05
1.15e-05
1.16e-05
1.16e-05
0
1.15e-05
1.16e-05
1.16e-05
2
1.17e-05
1.16e-05
1.16e-05
0
1.17e-05
1.16e-05
1.17e-05
1.16e-05
1.17e-05
1.17e-05
6
1.18e-05
1.17e-05
1.18e-05
1.17e-05
1.18e-05
1.17e-05
1.18e-05
1.18e-05
4
1.19e-05
1.18e-05
1.18e-05
0
1.19e-05
1.18e-05
1.19e-05
1.19e-05
0
1.18e-05
1.19e-05
1.19e-05
3
1.2e-05
1.19e-05
1.19e-05
0
1.2e-05
1.19e-05
1.2e-05
1.2e-05
0
1.19e-05
1.2e-05
1.2e-05
3
1.21e-05
1.2e-05
1.2e-05
0
1.21e-05
1.2e-05
1.21e-05
1.21e-05
0
1.2e-05
1.21e-05
1.21e-05
4
1.22e-05
1.21e-05
1.21e-05
0
1.22e-05
1.22e-05
0
1.21e-05
1.22e-05
1.22e-05
6
1.23e-05
1.22e-05
1.23e-05
1.22e-05
1.23e-05
1.22e-05
1.23e-05
1.23e-05
4
1.24e-05
1.23e-05
1.23e-05
0
1.24e-05
1.23e-05
1.24e-05
1.24e-05
1
1.23e-05
1.24e-05
1.24e-05
1
1.25e-05
1.24e-05
1.24e-05
0
1.25e-05
1.24e-05
1.25e-05
1.24e-05
