# Pulseq sequence file
# Created by MATLAB mr toolbox

[VERSION]
major 1
minor 3
revision 0

[DEFINITIONS]
offsets_ppm -3 -2.14286 -1.28571 -0.428571 0.428571 1.28571 2.14286 3 
run_m0_scan 0 

# Format of blocks:
#  #  D RF  GX  GY  GZ ADC EXT
[BLOCKS]
  1  1  0   0   0   0  0  0
  2  0  1   0   0   0  0  0
  3  2  0   0   0   0  0  0
  4  0  2   0   0   0  0  0
  5  2  0   0   0   0  0  0
  6  0  3   0   0   0  0  0
  7  2  0   0   0   0  0  0
  8  0  4   0   0   0  0  0
  9  2  0   0   0   0  0  0
 10  0  5   0   0   0  0  0
 11  2  0   0   0   0  0  0
 12  0  6   0   0   0  0  0
 13  2  0   0   0   0  0  0
 14  0  7   0   0   0  0  0
 15  2  0   0   0   0  0  0
 16  0  8   0   0   0  0  0
 17  2  0   0   0   0  0  0
 18  0  9   0   0   0  0  0
 19  2  0   0   0   0  0  0
 20  0 10   0   0   0  0  0
 21  2  0   0   0   0  0  0
 22  0 11   0   0   0  0  0
 23  2  0   0   0   0  0  0
 24  0 12   0   0   0  0  0
 25  2  0   0   0   0  0  0
 26  0 13   0   0   0  0  0
 27  2  0   0   0   0  0  0
 28  0 14   0   0   0  0  0
 29  2  0   0   0   0  0  0
 30  0 15   0   0   0  0  0
 31  2  0   0   0   0  0  0
 32  0 16   0   0   0  0  0
 33  2  0   0   0   0  0  0
 34  0 17   0   0   0  0  0
 35  2  0   0   0   0  0  0
 36  0 18   0   0   0  0  0
 37  2  0   0   0   0  0  0
 38  0 19   0   0   0  0  0
 39  2  0   0   0   0  0  0
 40  0 20   0   0   0  0  0
 41  2  0   0   0   0  0  0
 42  0 21   0   0   0  0  0
 43  2  0   0   0   0  0  0
 44  0 22   0   0   0  0  0
 45  2  0   0   0   0  0  0
 46  0 23   0   0   0  0  0
 47  2  0   0   0   0  0  0
 48  0 24   0   0   0  0  0
 49  2  0   0   0   0  0  0
 50  0 25   0   0   0  0  0
 51  2  0   0   0   0  0  0
 52  0 26   0   0   0  0  0
 53  2  0   0   0   0  0  0
 54  0 27   0   0   0  0  0
 55  2  0   0   0   0  0  0
 56  0 28   0   0   0  0  0
 57  2  0   0   0   0  0  0
 58  0 29   0   0   0  0  0
 59  2  0   0   0   0  0  0
 60  0 30   0   0   0  0  0
 61  2  0   0   0   0  0  0
 62  0 31   0   0   0  0  0
 63  2  0   0   0   0  0  0
 64  0 32   0   0   0  0  0
 65  0  0   1   1   1  0  0
 66  0  0   0   0   0  1  0
 67  1  0   0   0   0  0  0
 68  0 33   0   0   0  0  0
 69  2  0   0   0   0  0  0
 70  0 34   0   0   0  0  0
 71  2  0   0   0   0  0  0
 72  0 35   0   0   0  0  0
 73  2  0   0   0   0  0  0
 74  0 36   0   0   0  0  0
 75  2  0   0   0   0  0  0
 76  0 37   0   0   0  0  0
 77  2  0   0   0   0  0  0
 78  0 38   0   0   0  0  0
 79  2  0   0   0   0  0  0
 80  0 39   0   0   0  0  0
 81  2  0   0   0   0  0  0
 82  0 40   0   0   0  0  0
 83  2  0   0   0   0  0  0
 84  0 41   0   0   0  0  0
 85  2  0   0   0   0  0  0
 86  0 42   0   0   0  0  0
 87  2  0   0   0   0  0  0
 88  0 43   0   0   0  0  0
 89  2  0   0   0   0  0  0
 90  0 44   0   0   0  0  0
 91  2  0   0   0   0  0  0
 92  0 45   0   0   0  0  0
 93  2  0   0   0   0  0  0
 94  0 46   0   0   0  0  0
 95  2  0   0   0   0  0  0
 96  0 47   0   0   0  0  0
 97  2  0   0   0   0  0  0
 98  0 48   0   0   0  0  0
 99  2  0   0   0   0  0  0
100  0 49   0   0   0  0  0
101  2  0   0   0   0  0  0
102  0 50   0   0   0  0  0
103  2  0   0   0   0  0  0
104  0 51   0   0   0  0  0
105  2  0   0   0   0  0  0
106  0 52   0   0   0  0  0
107  2  0   0   0   0  0  0
108  0 53   0   0   0  0  0
109  2  0   0   0   0  0  0
110  0 54   0   0   0  0  0
111  2  0   0   0   0  0  0
112  0 55   0   0   0  0  0
113  2  0   0   0   0  0  0
114  0 56   0   0   0  0  0
115  2  0   0   0   0  0  0
116  0 57   0   0   0  0  0
117  2  0   0   0   0  0  0
118  0 58   0   0   0  0  0
119  2  0   0   0   0  0  0
120  0 59   0   0   0  0  0
121  2  0   0   0   0  0  0
122  0 60   0   0   0  0  0
123  2  0   0   0   0  0  0
124  0 61   0   0   0  0  0
125  2  0   0   0   0  0  0
126  0 62   0   0   0  0  0
127  2  0   0   0   0  0  0
128  0 63   0   0   0  0  0
129  2  0   0   0   0  0  0
130  0 64   0   0   0  0  0
131  0  0   1   1   1  0  0
132  0  0   0   0   0  1  0
133  1  0   0   0   0  0  0
134  0 65   0   0   0  0  0
135  2  0   0   0   0  0  0
136  0 66   0   0   0  0  0
137  2  0   0   0   0  0  0
138  0 67   0   0   0  0  0
139  2  0   0   0   0  0  0
140  0 68   0   0   0  0  0
141  2  0   0   0   0  0  0
142  0 69   0   0   0  0  0
143  2  0   0   0   0  0  0
144  0 70   0   0   0  0  0
145  2  0   0   0   0  0  0
146  0 71   0   0   0  0  0
147  2  0   0   0   0  0  0
148  0 72   0   0   0  0  0
149  2  0   0   0   0  0  0
150  0 73   0   0   0  0  0
151  2  0   0   0   0  0  0
152  0 74   0   0   0  0  0
153  2  0   0   0   0  0  0
154  0 75   0   0   0  0  0
155  2  0   0   0   0  0  0
156  0 76   0   0   0  0  0
157  2  0   0   0   0  0  0
158  0 77   0   0   0  0  0
159  2  0   0   0   0  0  0
160  0 78   0   0   0  0  0
161  2  0   0   0   0  0  0
162  0 79   0   0   0  0  0
163  2  0   0   0   0  0  0
164  0 80   0   0   0  0  0
165  2  0   0   0   0  0  0
166  0 81   0   0   0  0  0
167  2  0   0   0   0  0  0
168  0 82   0   0   0  0  0
169  2  0   0   0   0  0  0
170  0 83   0   0   0  0  0
171  2  0   0   0   0  0  0
172  0 84   0   0   0  0  0
173  2  0   0   0   0  0  0
174  0 85   0   0   0  0  0
175  2  0   0   0   0  0  0
176  0 86   0   0   0  0  0
177  2  0   0   0   0  0  0
178  0 87   0   0   0  0  0
179  2  0   0   0   0  0  0
180  0 88   0   0   0  0  0
181  2  0   0   0   0  0  0
182  0 89   0   0   0  0  0
183  2  0   0   0   0  0  0
184  0 90   0   0   0  0  0
185  2  0   0   0   0  0  0
186  0 91   0   0   0  0  0
187  2  0   0   0   0  0  0
188  0 92   0   0   0  0  0
189  2  0   0   0   0  0  0
190  0 93   0   0   0  0  0
191  2  0   0   0   0  0  0
192  0 94   0   0   0  0  0
193  2  0   0   0   0  0  0
194  0 95   0   0   0  0  0
195  2  0   0   0   0  0  0
196  0 96   0   0   0  0  0
197  0  0   1   1   1  0  0
198  0  0   0   0   0  1  0
199  1  0   0   0   0  0  0
200  0 97   0   0   0  0  0
201  2  0   0   0   0  0  0
202  0 98   0   0   0  0  0
203  2  0   0   0   0  0  0
204  0 99   0   0   0  0  0
205  2  0   0   0   0  0  0
206  0 100   0   0   0  0  0
207  2  0   0   0   0  0  0
208  0 101   0   0   0  0  0
209  2  0   0   0   0  0  0
210  0 102   0   0   0  0  0
211  2  0   0   0   0  0  0
212  0 103   0   0   0  0  0
213  2  0   0   0   0  0  0
214  0 104   0   0   0  0  0
215  2  0   0   0   0  0  0
216  0 105   0   0   0  0  0
217  2  0   0   0   0  0  0
218  0 106   0   0   0  0  0
219  2  0   0   0   0  0  0
220  0 107   0   0   0  0  0
221  2  0   0   0   0  0  0
222  0 108   0   0   0  0  0
223  2  0   0   0   0  0  0
224  0 109   0   0   0  0  0
225  2  0   0   0   0  0  0
226  0 110   0   0   0  0  0
227  2  0   0   0   0  0  0
228  0 111   0   0   0  0  0
229  2  0   0   0   0  0  0
230  0 112   0   0   0  0  0
231  2  0   0   0   0  0  0
232  0 113   0   0   0  0  0
233  2  0   0   0   0  0  0
234  0 114   0   0   0  0  0
235  2  0   0   0   0  0  0
236  0 115   0   0   0  0  0
237  2  0   0   0   0  0  0
238  0 116   0   0   0  0  0
239  2  0   0   0   0  0  0
240  0 117   0   0   0  0  0
241  2  0   0   0   0  0  0
242  0 118   0   0   0  0  0
243  2  0   0   0   0  0  0
244  0 119   0   0   0  0  0
245  2  0   0   0   0  0  0
246  0 120   0   0   0  0  0
247  2  0   0   0   0  0  0
248  0 121   0   0   0  0  0
249  2  0   0   0   0  0  0
250  0 122   0   0   0  0  0
251  2  0   0   0   0  0  0
252  0 123   0   0   0  0  0
253  2  0   0   0   0  0  0
254  0 124   0   0   0  0  0
255  2  0   0   0   0  0  0
256  0 125   0   0   0  0  0
257  2  0   0   0   0  0  0
258  0 126   0   0   0  0  0
259  2  0   0   0   0  0  0
260  0 127   0   0   0  0  0
261  2  0   0   0   0  0  0
262  0 128   0   0   0  0  0
263  0  0   1   1   1  0  0
264  0  0   0   0   0  1  0
265  1  0   0   0   0  0  0
266  0 129   0   0   0  0  0
267  2  0   0   0   0  0  0
268  0 130   0   0   0  0  0
269  2  0   0   0   0  0  0
270  0 131   0   0   0  0  0
271  2  0   0   0   0  0  0
272  0 132   0   0   0  0  0
273  2  0   0   0   0  0  0
274  0 133   0   0   0  0  0
275  2  0   0   0   0  0  0
276  0 134   0   0   0  0  0
277  2  0   0   0   0  0  0
278  0 135   0   0   0  0  0
279  2  0   0   0   0  0  0
280  0 136   0   0   0  0  0
281  2  0   0   0   0  0  0
282  0 137   0   0   0  0  0
283  2  0   0   0   0  0  0
284  0 138   0   0   0  0  0
285  2  0   0   0   0  0  0
286  0 139   0   0   0  0  0
287  2  0   0   0   0  0  0
288  0 140   0   0   0  0  0
289  2  0   0   0   0  0  0
290  0 141   0   0   0  0  0
291  2  0   0   0   0  0  0
292  0 142   0   0   0  0  0
293  2  0   0   0   0  0  0
294  0 143   0   0   0  0  0
295  2  0   0   0   0  0  0
296  0 144   0   0   0  0  0
297  2  0   0   0   0  0  0
298  0 145   0   0   0  0  0
299  2  0   0   0   0  0  0
300  0 146   0   0   0  0  0
301  2  0   0   0   0  0  0
302  0 147   0   0   0  0  0
303  2  0   0   0   0  0  0
304  0 148   0   0   0  0  0
305  2  0   0   0   0  0  0
306  0 149   0   0   0  0  0
307  2  0   0   0   0  0  0
308  0 150   0   0   0  0  0
309  2  0   0   0   0  0  0
310  0 151   0   0   0  0  0
311  2  0   0   0   0  0  0
312  0 152   0   0   0  0  0
313  2  0   0   0   0  0  0
314  0 153   0   0   0  0  0
315  2  0   0   0   0  0  0
316  0 154   0   0   0  0  0
317  2  0   0   0   0  0  0
318  0 155   0   0   0  0  0
319  2  0   0   0   0  0  0
320  0 156   0   0   0  0  0
321  2  0   0   0   0  0  0
322  0 157   0   0   0  0  0
323  2  0   0   0   0  0  0
324  0 158   0   0   0  0  0
325  2  0   0   0   0  0  0
326  0 159   0   0   0  0  0
327  2  0   0   0   0  0  0
328  0 160   0   0   0  0  0
329  0  0   1   1   1  0  0
330  0  0   0   0   0  1  0
331  1  0   0   0   0  0  0
332  0 161   0   0   0  0  0
333  2  0   0   0   0  0  0
334  0 162   0   0   0  0  0
335  2  0   0   0   0  0  0
336  0 163   0   0   0  0  0
337  2  0   0   0   0  0  0
338  0 164   0   0   0  0  0
339  2  0   0   0   0  0  0
340  0 165   0   0   0  0  0
341  2  0   0   0   0  0  0
342  0 166   0   0   0  0  0
343  2  0   0   0   0  0  0
344  0 167   0   0   0  0  0
345  2  0   0   0   0  0  0
[RF]
1      250.392 1 2 100 -894.104 0
2      250.392 1 2 100 -894.104 1.85216
3      250.392 1 2 100 -894.104 3.70431
4      250.392 1 2 100 -894.104 5.55647
5      250.392 1 2 100 -894.104 1.12544
6      250.392 1 2 100 -894.104 2.9776
7      250.392 1 2 100 -894.104 4.82976
8      250.392 1 2 100 -894.104 0.398731
9      250.392 1 2 100 -894.104 2.25089
10      250.392 1 2 100 -894.104 4.10305
11      250.392 1 2 100 -894.104 5.9552
12      250.392 1 2 100 -894.104 1.52418
13      250.392 1 2 100 -894.104 3.37633
14      250.392 1 2 100 -894.104 5.22849
15      250.392 1 2 100 -894.104 0.797462
16      250.392 1 2 100 -894.104 2.64962
17      250.392 1 2 100 -894.104 4.50178
18      250.392 1 2 100 -894.104 0.0707487
19      250.392 1 2 100 -894.104 1.92291
20      250.392 1 2 100 -894.104 3.77506
21      250.392 1 2 100 -894.104 5.62722
22      250.392 1 2 100 -894.104 1.19619
23      250.392 1 2 100 -894.104 3.04835
24      250.392 1 2 100 -894.104 4.90051
25      250.392 1 2 100 -894.104 0.46948
26      250.392 1 2 100 -894.104 2.32164
27      250.392 1 2 100 -894.104 4.17379
28      250.392 1 2 100 -894.104 6.02595
29      250.392 1 2 100 -894.104 1.59492
30      250.392 1 2 100 -894.104 3.44708
31      250.392 1 2 100 -894.104 5.29924
32      250.392 1 2 100 -894.104 0.868211
33      250.392 1 2 100 -638.646 0
34      250.392 1 2 100 -638.646 0.425372
35      250.392 1 2 100 -638.646 0.850743
36      250.392 1 2 100 -638.646 1.27611
37      250.392 1 2 100 -638.646 1.70149
38      250.392 1 2 100 -638.646 2.12686
39      250.392 1 2 100 -638.646 2.55223
40      250.392 1 2 100 -638.646 2.9776
41      250.392 1 2 100 -638.646 3.40297
42      250.392 1 2 100 -638.646 3.82834
43      250.392 1 2 100 -638.646 4.25372
44      250.392 1 2 100 -638.646 4.67909
45      250.392 1 2 100 -638.646 5.10446
46      250.392 1 2 100 -638.646 5.52983
47      250.392 1 2 100 -638.646 5.9552
48      250.392 1 2 100 -638.646 0.0973894
49      250.392 1 2 100 -638.646 0.522761
50      250.392 1 2 100 -638.646 0.948133
51      250.392 1 2 100 -638.646 1.3735
52      250.392 1 2 100 -638.646 1.79888
53      250.392 1 2 100 -638.646 2.22425
54      250.392 1 2 100 -638.646 2.64962
55      250.392 1 2 100 -638.646 3.07499
56      250.392 1 2 100 -638.646 3.50036
57      250.392 1 2 100 -638.646 3.92573
58      250.392 1 2 100 -638.646 4.35111
59      250.392 1 2 100 -638.646 4.77648
60      250.392 1 2 100 -638.646 5.20185
61      250.392 1 2 100 -638.646 5.62722
62      250.392 1 2 100 -638.646 6.05259
63      250.392 1 2 100 -638.646 0.194779
64      250.392 1 2 100 -638.646 0.62015
65      250.392 1 2 100 -383.188 0
66      250.392 1 2 100 -383.188 5.28177
67      250.392 1 2 100 -383.188 4.28036
68      250.392 1 2 100 -383.188 3.27894
69      250.392 1 2 100 -383.188 2.27753
70      250.392 1 2 100 -383.188 1.27611
71      250.392 1 2 100 -383.188 0.274701
72      250.392 1 2 100 -383.188 5.55647
73      250.392 1 2 100 -383.188 4.55506
74      250.392 1 2 100 -383.188 3.55364
75      250.392 1 2 100 -383.188 2.55223
76      250.392 1 2 100 -383.188 1.55082
77      250.392 1 2 100 -383.188 0.549402
78      250.392 1 2 100 -383.188 5.83117
79      250.392 1 2 100 -383.188 4.82976
80      250.392 1 2 100 -383.188 3.82834
81      250.392 1 2 100 -383.188 2.82693
82      250.392 1 2 100 -383.188 1.82552
83      250.392 1 2 100 -383.188 0.824103
84      250.392 1 2 100 -383.188 6.10587
85      250.392 1 2 100 -383.188 5.10446
86      250.392 1 2 100 -383.188 4.10305
87      250.392 1 2 100 -383.188 3.10163
88      250.392 1 2 100 -383.188 2.10022
89      250.392 1 2 100 -383.188 1.0988
90      250.392 1 2 100 -383.188 0.0973894
91      250.392 1 2 100 -383.188 5.37916
92      250.392 1 2 100 -383.188 4.37775
93      250.392 1 2 100 -383.188 3.37633
94      250.392 1 2 100 -383.188 2.37492
95      250.392 1 2 100 -383.188 1.3735
96      250.392 1 2 100 -383.188 0.37209
97      250.392 1 2 100 -127.729 0
98      250.392 1 2 100 -127.729 3.85499
99      250.392 1 2 100 -127.729 1.42679
100      250.392 1 2 100 -127.729 5.28177
101      250.392 1 2 100 -127.729 2.85357
102      250.392 1 2 100 -127.729 0.425372
103      250.392 1 2 100 -127.729 4.28036
104      250.392 1 2 100 -127.729 1.85216
105      250.392 1 2 100 -127.729 5.70714
106      250.392 1 2 100 -127.729 3.27894
107      250.392 1 2 100 -127.729 0.850743
108      250.392 1 2 100 -127.729 4.70573
109      250.392 1 2 100 -127.729 2.27753
110      250.392 1 2 100 -127.729 6.13251
111      250.392 1 2 100 -127.729 3.70431
112      250.392 1 2 100 -127.729 1.27611
113      250.392 1 2 100 -127.729 5.1311
114      250.392 1 2 100 -127.729 2.7029
115      250.392 1 2 100 -127.729 0.274701
116      250.392 1 2 100 -127.729 4.12969
117      250.392 1 2 100 -127.729 1.70149
118      250.392 1 2 100 -127.729 5.55647
119      250.392 1 2 100 -127.729 3.12827
120      250.392 1 2 100 -127.729 0.700073
121      250.392 1 2 100 -127.729 4.55506
122      250.392 1 2 100 -127.729 2.12686
123      250.392 1 2 100 -127.729 5.98184
124      250.392 1 2 100 -127.729 3.55364
125      250.392 1 2 100 -127.729 1.12544
126      250.392 1 2 100 -127.729 4.98043
127      250.392 1 2 100 -127.729 2.55223
128      250.392 1 2 100 -127.729 0.12403
129      250.392 1 2 100 127.729 0
130      250.392 1 2 100 127.729 2.4282
131      250.392 1 2 100 127.729 4.8564
132      250.392 1 2 100 127.729 1.00141
133      250.392 1 2 100 127.729 3.42961
134      250.392 1 2 100 127.729 5.85781
135      250.392 1 2 100 127.729 2.00283
136      250.392 1 2 100 127.729 4.43103
137      250.392 1 2 100 127.729 0.576042
138      250.392 1 2 100 127.729 3.00424
139      250.392 1 2 100 127.729 5.43244
140      250.392 1 2 100 127.729 1.57746
141      250.392 1 2 100 127.729 4.00566
142      250.392 1 2 100 127.729 0.150671
143      250.392 1 2 100 127.729 2.57887
144      250.392 1 2 100 127.729 5.00707
145      250.392 1 2 100 127.729 1.15208
146      250.392 1 2 100 127.729 3.58028
147      250.392 1 2 100 127.729 6.00848
148      250.392 1 2 100 127.729 2.1535
149      250.392 1 2 100 127.729 4.5817
150      250.392 1 2 100 127.729 0.726713
151      250.392 1 2 100 127.729 3.15491
152      250.392 1 2 100 127.729 5.58311
153      250.392 1 2 100 127.729 1.72813
154      250.392 1 2 100 127.729 4.15633
155      250.392 1 2 100 127.729 0.301342
156      250.392 1 2 100 127.729 2.72954
157      250.392 1 2 100 127.729 5.15774
158      250.392 1 2 100 127.729 1.30276
159      250.392 1 2 100 127.729 3.73096
160      250.392 1 2 100 127.729 6.15916
161      250.392 1 2 100 383.188 0
162      250.392 1 2 100 383.188 1.00141
163      250.392 1 2 100 383.188 2.00283
164      250.392 1 2 100 383.188 3.00424
165      250.392 1 2 100 383.188 4.00566
166      250.392 1 2 100 383.188 5.00707
167      250.392 1 2 100 383.188 6.00848
168      250.392 1 2 100 383.188 0.726713
169      250.392 1 2 100 383.188 1.72813
170      250.392 1 2 100 383.188 2.72954
171      250.392 1 2 100 383.188 3.73096
172      250.392 1 2 100 383.188 4.73237
173      250.392 1 2 100 383.188 5.73378
174      250.392 1 2 100 383.188 0.452012
175      250.392 1 2 100 383.188 1.45343
176      250.392 1 2 100 383.188 2.45484
177      250.392 1 2 100 383.188 3.45625
178      250.392 1 2 100 383.188 4.45767
179      250.392 1 2 100 383.188 5.45908
180      250.392 1 2 100 383.188 0.177311
181      250.392 1 2 100 383.188 1.17873
182      250.392 1 2 100 383.188 2.18014
183      250.392 1 2 100 383.188 3.18155
184      250.392 1 2 100 383.188 4.18297
185      250.392 1 2 100 383.188 5.18438
186      250.392 1 2 100 383.188 6.1858
187      250.392 1 2 100 383.188 0.904025
188      250.392 1 2 100 383.188 1.90544
189      250.392 1 2 100 383.188 2.90685
190      250.392 1 2 100 383.188 3.90827
191      250.392 1 2 100 383.188 4.90968
192      250.392 1 2 100 383.188 5.9111
193      250.392 1 2 100 638.646 0
194      250.392 1 2 100 638.646 5.85781
195      250.392 1 2 100 638.646 5.43244
196      250.392 1 2 100 638.646 5.00707
197      250.392 1 2 100 638.646 4.5817
198      250.392 1 2 100 638.646 4.15633
199      250.392 1 2 100 638.646 3.73096
200      250.392 1 2 100 638.646 3.30558
201      250.392 1 2 100 638.646 2.88021
202      250.392 1 2 100 638.646 2.45484
203      250.392 1 2 100 638.646 2.02947
204      250.392 1 2 100 638.646 1.6041
205      250.392 1 2 100 638.646 1.17873
206      250.392 1 2 100 638.646 0.753354
207      250.392 1 2 100 638.646 0.327982
208      250.392 1 2 100 638.646 6.1858
209      250.392 1 2 100 638.646 5.76042
210      250.392 1 2 100 638.646 5.33505
211      250.392 1 2 100 638.646 4.90968
212      250.392 1 2 100 638.646 4.48431
213      250.392 1 2 100 638.646 4.05894
214      250.392 1 2 100 638.646 3.63357
215      250.392 1 2 100 638.646 3.20819
216      250.392 1 2 100 638.646 2.78282
217      250.392 1 2 100 638.646 2.35745
218      250.392 1 2 100 638.646 1.93208
219      250.392 1 2 100 638.646 1.50671
220      250.392 1 2 100 638.646 1.08134
221      250.392 1 2 100 638.646 0.655965
222      250.392 1 2 100 638.646 0.230593
223      250.392 1 2 100 638.646 6.08841
224      250.392 1 2 100 638.646 5.66303
225      250.392 1 2 100 894.104 0
226      250.392 1 2 100 894.104 4.43103
227      250.392 1 2 100 894.104 2.57887
228      250.392 1 2 100 894.104 0.726713
229      250.392 1 2 100 894.104 5.15774
230      250.392 1 2 100 894.104 3.30558
231      250.392 1 2 100 894.104 1.45343
232      250.392 1 2 100 894.104 5.88445
233      250.392 1 2 100 894.104 4.0323
234      250.392 1 2 100 894.104 2.18014
235      250.392 1 2 100 894.104 0.327982
236      250.392 1 2 100 894.104 4.75901
237      250.392 1 2 100 894.104 2.90685
238      250.392 1 2 100 894.104 1.0547
239      250.392 1 2 100 894.104 5.48572
240      250.392 1 2 100 894.104 3.63357
241      250.392 1 2 100 894.104 1.78141
242      250.392 1 2 100 894.104 6.21244
243      250.392 1 2 100 894.104 4.36028
244      250.392 1 2 100 894.104 2.50812
245      250.392 1 2 100 894.104 0.655965
246      250.392 1 2 100 894.104 5.08699
247      250.392 1 2 100 894.104 3.23484
248      250.392 1 2 100 894.104 1.38268
249      250.392 1 2 100 894.104 5.81371
250      250.392 1 2 100 894.104 3.96155
251      250.392 1 2 100 894.104 2.10939
252      250.392 1 2 100 894.104 0.257234
253      250.392 1 2 100 894.104 4.68826
254      250.392 1 2 100 894.104 2.8361
255      250.392 1 2 100 894.104 0.983947
256      250.392 1 2 100 894.104 5.41497

# Format of trapezoid gradients:
# id amplitude rise flat fall delay
# ..      Hz/m   us   us   us    us
[TRAP]
 1  1.36243e+06 250 4000 250   0

# Format of ADC events:
# id num dwell delay freq phase
# ..  ..    ns    us   Hz   rad
[ADC]
1 1 1000000 0 0 0

# Format of delays:
# id delay (us)
[DELAYS]
1 2000000
2 25000

# Sequence Shapes
[SHAPES]

shape_id 1
num_samples 50030
0.0008519
5e-07
5e-07
1
4e-07
5e-07
5e-07
3
4e-07
5e-07
5e-07
4
4e-07
5e-07
5e-07
5
4e-07
5e-07
5e-07
6
4e-07
5e-07
5e-07
9
4e-07
5e-07
5e-07
47
6e-07
5e-07
5e-07
10
6e-07
5e-07
5e-07
6
6e-07
5e-07
5e-07
4
6e-07
5e-07
5e-07
4
6e-07
5e-07
5e-07
3
6e-07
5e-07
5e-07
2
6e-07
5e-07
5e-07
2
6e-07
5e-07
5e-07
2
6e-07
5e-07
5e-07
1
6e-07
5e-07
5e-07
2
6e-07
5e-07
5e-07
1
6e-07
5e-07
5e-07
1
6e-07
5e-07
5e-07
0
6e-07
5e-07
5e-07
1
6e-07
5e-07
5e-07
0
6e-07
5e-07
5e-07
1
6e-07
5e-07
5e-07
0
6e-07
5e-07
5e-07
0
6e-07
5e-07
5e-07
0
6e-07
5e-07
5e-07
0
6e-07
5e-07
5e-07
0
6e-07
5e-07
5e-07
0
6e-07
5e-07
5e-07
0
6e-07
5e-07
5e-07
0
6e-07
5e-07
6e-07
5e-07
5e-07
0
6e-07
5e-07
5e-07
0
6e-07
5e-07
6e-07
5e-07
5e-07
0
6e-07
5e-07
6e-07
5e-07
6e-07
5e-07
5e-07
0
6e-07
5e-07
6e-07
5e-07
6e-07
5e-07
5e-07
0
6e-07
5e-07
6e-07
5e-07
6e-07
5e-07
6e-07
5e-07
6e-07
5e-07
5e-07
0
6e-07
5e-07
6e-07
5e-07
6e-07
5e-07
6e-07
5e-07
6e-07
5e-07
6e-07
5e-07
6e-07
5e-07
6e-07
5e-07
6e-07
5e-07
6e-07
6e-07
0
5e-07
6e-07
5e-07
6e-07
5e-07
6e-07
5e-07
6e-07
5e-07
6e-07
6e-07
0
5e-07
6e-07
5e-07
6e-07
5e-07
6e-07
6e-07
0
5e-07
6e-07
5e-07
6e-07
6e-07
0
5e-07
6e-07
5e-07
6e-07
6e-07
0
5e-07
6e-07
5e-07
6e-07
6e-07
0
5e-07
6e-07
6e-07
0
5e-07
6e-07
5e-07
6e-07
6e-07
0
5e-07
6e-07
6e-07
0
5e-07
6e-07
6e-07
0
5e-07
6e-07
6e-07
0
5e-07
6e-07
6e-07
1
5e-07
6e-07
6e-07
0
5e-07
6e-07
6e-07
0
5e-07
6e-07
6e-07
1
5e-07
6e-07
6e-07
0
5e-07
6e-07
6e-07
1
5e-07
6e-07
6e-07
1
5e-07
6e-07
6e-07
1
5e-07
6e-07
6e-07
2
5e-07
6e-07
6e-07
1
5e-07
6e-07
6e-07
2
5e-07
6e-07
6e-07
3
5e-07
6e-07
6e-07
3
5e-07
6e-07
6e-07
3
5e-07
6e-07
6e-07
5
5e-07
6e-07
6e-07
8
5e-07
6e-07
6e-07
15
5e-07
6e-07
6e-07
14
7e-07
6e-07
6e-07
15
7e-07
6e-07
6e-07
7
7e-07
6e-07
6e-07
5
7e-07
6e-07
6e-07
4
7e-07
6e-07
6e-07
3
7e-07
6e-07
6e-07
2
7e-07
6e-07
6e-07
2
7e-07
6e-07
6e-07
1
7e-07
6e-07
6e-07
2
7e-07
6e-07
6e-07
1
7e-07
6e-07
6e-07
1
7e-07
6e-07
6e-07
0
7e-07
6e-07
6e-07
1
7e-07
6e-07
6e-07
0
7e-07
6e-07
6e-07
1
7e-07
6e-07
6e-07
0
7e-07
6e-07
6e-07
0
7e-07
6e-07
6e-07
0
7e-07
6e-07
6e-07
0
7e-07
6e-07
7e-07
6e-07
6e-07
0
7e-07
6e-07
6e-07
0
7e-07
6e-07
6e-07
0
7e-07
6e-07
7e-07
6e-07
6e-07
0
7e-07
6e-07
7e-07
6e-07
7e-07
6e-07
6e-07
0
7e-07
6e-07
7e-07
6e-07
7e-07
6e-07
6e-07
0
7e-07
6e-07
7e-07
6e-07
7e-07
6e-07
7e-07
6e-07
7e-07
6e-07
7e-07
6e-07
6e-07
0
7e-07
6e-07
7e-07
6e-07
7e-07
6e-07
7e-07
7e-07
0
6e-07
7e-07
6e-07
7e-07
6e-07
7e-07
6e-07
7e-07
6e-07
7e-07
6e-07
7e-07
7e-07
0
6e-07
7e-07
6e-07
7e-07
6e-07
7e-07
7e-07
0
6e-07
7e-07
6e-07
7e-07
6e-07
7e-07
7e-07
0
6e-07
7e-07
7e-07
0
6e-07
7e-07
6e-07
7e-07
7e-07
0
6e-07
7e-07
7e-07
0
6e-07
7e-07
7e-07
0
6e-07
7e-07
7e-07
0
6e-07
7e-07
7e-07
0
6e-07
7e-07
7e-07
0
6e-07
7e-07
7e-07
0
6e-07
7e-07
7e-07
0
6e-07
7e-07
7e-07
1
6e-07
7e-07
7e-07
1
6e-07
7e-07
7e-07
0
6e-07
7e-07
7e-07
1
6e-07
7e-07
7e-07
2
6e-07
7e-07
7e-07
1
6e-07
7e-07
7e-07
2
6e-07
7e-07
7e-07
3
6e-07
7e-07
7e-07
3
6e-07
7e-07
7e-07
4
6e-07
7e-07
7e-07
7
6e-07
7e-07
7e-07
12
6e-07
7e-07
7e-07
18
8e-07
7e-07
7e-07
13
8e-07
7e-07
7e-07
6
8e-07
7e-07
7e-07
4
8e-07
7e-07
7e-07
3
8e-07
7e-07
7e-07
3
8e-07
7e-07
7e-07
2
8e-07
7e-07
7e-07
1
8e-07
7e-07
7e-07
1
8e-07
7e-07
7e-07
1
8e-07
7e-07
7e-07
1
8e-07
7e-07
7e-07
1
8e-07
7e-07
7e-07
0
8e-07
7e-07
7e-07
0
8e-07
7e-07
7e-07
1
8e-07
7e-07
7e-07
0
8e-07
7e-07
7e-07
0
8e-07
7e-07
8e-07
7e-07
7e-07
0
8e-07
7e-07
7e-07
0
8e-07
7e-07
8e-07
7e-07
7e-07
0
8e-07
7e-07
7e-07
0
8e-07
7e-07
8e-07
7e-07
8e-07
7e-07
7e-07
0
8e-07
7e-07
8e-07
7e-07
8e-07
7e-07
8e-07
7e-07
7e-07
0
8e-07
7e-07
8e-07
7e-07
8e-07
7e-07
8e-07
7e-07
8e-07
7e-07
8e-07
7e-07
8e-07
7e-07
8e-07
7e-07
8e-07
7e-07
8e-07
7e-07
8e-07
8e-07
0
7e-07
8e-07
7e-07
8e-07
7e-07
8e-07
7e-07
8e-07
8e-07
0
7e-07
8e-07
7e-07
8e-07
8e-07
0
7e-07
8e-07
7e-07
8e-07
8e-07
0
7e-07
8e-07
8e-07
0
7e-07
8e-07
7e-07
8e-07
8e-07
0
7e-07
8e-07
8e-07
0
7e-07
8e-07
8e-07
0
7e-07
8e-07
8e-07
0
7e-07
8e-07
8e-07
1
7e-07
8e-07
8e-07
0
7e-07
8e-07
8e-07
1
7e-07
8e-07
8e-07
0
7e-07
8e-07
8e-07
1
7e-07
8e-07
8e-07
2
7e-07
8e-07
8e-07
1
7e-07
8e-07
8e-07
2
7e-07
8e-07
8e-07
3
7e-07
8e-07
8e-07
4
7e-07
8e-07
8e-07
5
7e-07
8e-07
8e-07
9
7e-07
8e-07
8e-07
25
9e-07
8e-07
8e-07
10
9e-07
8e-07
8e-07
5
9e-07
8e-07
8e-07
3
9e-07
8e-07
8e-07
3
9e-07
8e-07
8e-07
2
9e-07
8e-07
8e-07
2
9e-07
8e-07
8e-07
1
9e-07
8e-07
8e-07
1
9e-07
8e-07
8e-07
0
9e-07
8e-07
8e-07
1
9e-07
8e-07
8e-07
0
9e-07
8e-07
8e-07
0
9e-07
8e-07
8e-07
1
9e-07
8e-07
8e-07
0
9e-07
8e-07
9e-07
8e-07
8e-07
0
9e-07
8e-07
8e-07
0
9e-07
8e-07
9e-07
8e-07
8e-07
0
9e-07
8e-07
9e-07
8e-07
8e-07
0
9e-07
8e-07
9e-07
8e-07
9e-07
8e-07
8e-07
0
9e-07
8e-07
9e-07
8e-07
9e-07
8e-07
9e-07
8e-07
9e-07
8e-07
9e-07
8e-07
9e-07
8e-07
9e-07
8e-07
9e-07
8e-07
9e-07
8e-07
9e-07
8e-07
9e-07
8e-07
9e-07
9e-07
0
8e-07
9e-07
8e-07
9e-07
8e-07
9e-07
9e-07
0
8e-07
9e-07
8e-07
9e-07
9e-07
0
8e-07
9e-07
8e-07
9e-07
9e-07
0
8e-07
9e-07
9e-07
0
8e-07
9e-07
9e-07
0
8e-07
9e-07
8e-07
9e-07
9e-07
1
8e-07
9e-07
9e-07
0
8e-07
9e-07
9e-07
0
8e-07
9e-07
9e-07
1
8e-07
9e-07
9e-07
1
8e-07
9e-07
9e-07
1
8e-07
9e-07
9e-07
1
8e-07
9e-07
9e-07
2
8e-07
9e-07
9e-07
2
8e-07
9e-07
9e-07
3
8e-07
9e-07
9e-07
5
8e-07
9e-07
9e-07
9
8e-07
9e-07
9e-07
24
1e-06
9e-07
9e-07
9
1e-06
9e-07
9e-07
4
1e-06
9e-07
9e-07
4
1e-06
9e-07
9e-07
2
1e-06
9e-07
9e-07
2
1e-06
9e-07
9e-07
1
1e-06
9e-07
9e-07
1
1e-06
9e-07
9e-07
1
1e-06
9e-07
9e-07
0
1e-06
9e-07
9e-07
1
1e-06
9e-07
9e-07
0
1e-06
9e-07
9e-07
0
1e-06
9e-07
9e-07
0
1e-06
9e-07
9e-07
0
1e-06
9e-07
1e-06
9e-07
9e-07
0
1e-06
9e-07
1e-06
9e-07
9e-07
0
1e-06
9e-07
1e-06
9e-07
9e-07
0
1e-06
9e-07
1e-06
9e-07
1e-06
9e-07
1e-06
9e-07
1e-06
9e-07
1e-06
9e-07
9e-07
0
1e-06
9e-07
1e-06
9e-07
1e-06
1e-06
0
9e-07
1e-06
9e-07
1e-06
9e-07
1e-06
9e-07
1e-06
9e-07
1e-06
1e-06
0
9e-07
1e-06
9e-07
1e-06
9e-07
1e-06
1e-06
0
9e-07
1e-06
1e-06
0
9e-07
1e-06
9e-07
1e-06
1e-06
0
9e-07
1e-06
1e-06
0
9e-07
1e-06
1e-06
0
9e-07
1e-06
1e-06
0
9e-07
1e-06
1e-06
0
9e-07
1e-06
1e-06
1
9e-07
1e-06
1e-06
1
9e-07
1e-06
1e-06
1
9e-07
1e-06
1e-06
1
9e-07
1e-06
1e-06
2
9e-07
1e-06
1e-06
2
9e-07
1e-06
1e-06
4
9e-07
1e-06
1e-06
5
9e-07
1e-06
1e-06
15
9e-07
1e-06
1e-06
1
1.1e-06
1e-06
1e-06
15
1.1e-06
1e-06
1e-06
6
1.1e-06
1e-06
1e-06
3
1.1e-06
1e-06
1e-06
3
1.1e-06
1e-06
1e-06
1
1.1e-06
1e-06
1e-06
2
1.1e-06
1e-06
1e-06
0
1.1e-06
1e-06
1e-06
1
1.1e-06
1e-06
1e-06
1
1.1e-06
1e-06
1e-06
0
1.1e-06
1e-06
1e-06
0
1.1e-06
1e-06
1e-06
0
1.1e-06
1e-06
1e-06
0
1.1e-06
1e-06
1.1e-06
1e-06
1e-06
0
1.1e-06
1e-06
1e-06
0
1.1e-06
1e-06
1.1e-06
1e-06
1.1e-06
1e-06
1e-06
0
1.1e-06
1e-06
1.1e-06
1e-06
1.1e-06
1e-06
1.1e-06
1e-06
1.1e-06
1e-06
1.1e-06
1e-06
1.1e-06
1e-06
1.1e-06
1e-06
1.1e-06
1e-06
1.1e-06
1e-06
1.1e-06
1e-06
1.1e-06
1e-06
1.1e-06
1e-06
1.1e-06
1.1e-06
0
1e-06
1.1e-06
1e-06
1.1e-06
1.1e-06
0
1e-06
1.1e-06
1e-06
1.1e-06
1.1e-06
0
1e-06
1.1e-06
1.1e-06
0
1e-06
1.1e-06
1.1e-06
0
1e-06
1.1e-06
1.1e-06
0
1e-06
1.1e-06
1.1e-06
0
1e-06
1.1e-06
1.1e-06
0
1e-06
1.1e-06
1.1e-06
1
1e-06
1.1e-06
1.1e-06
1
1e-06
1.1e-06
1.1e-06
1
1e-06
1.1e-06
1.1e-06
2
1e-06
1.1e-06
1.1e-06
2
1e-06
1.1e-06
1.1e-06
4
1e-06
1.1e-06
1.1e-06
6
1e-06
1.1e-06
1.1e-06
30
1.2e-06
1.1e-06
1.1e-06
6
1.2e-06
1.1e-06
1.1e-06
4
1.2e-06
1.1e-06
1.1e-06
2
1.2e-06
1.1e-06
1.1e-06
2
1.2e-06
1.1e-06
1.1e-06
1
1.2e-06
1.1e-06
1.1e-06
1
1.2e-06
1.1e-06
1.1e-06
0
1.2e-06
1.1e-06
1.1e-06
0
1.2e-06
1.1e-06
1.1e-06
1
1.2e-06
1.1e-06
1.1e-06
0
1.2e-06
1.1e-06
1.2e-06
1.1e-06
1.1e-06
0
1.2e-06
1.1e-06
1.1e-06
0
1.2e-06
1.1e-06
1.2e-06
1.1e-06
1.1e-06
0
1.2e-06
1.1e-06
1.2e-06
1.1e-06
1.1e-06
0
1.2e-06
1.1e-06
1.2e-06
1.1e-06
1.2e-06
1.1e-06
1.2e-06
1.1e-06
1.2e-06
1.1e-06
1.2e-06
1.1e-06
1.2e-06
1.1e-06
1.2e-06
1.1e-06
1.2e-06
1.1e-06
1.2e-06
1.1e-06
1.2e-06
1.2e-06
0
1.1e-06
1.2e-06
1.1e-06
1.2e-06
1.1e-06
1.2e-06
1.2e-06
0
1.1e-06
1.2e-06
1.1e-06
1.2e-06
1.2e-06
0
1.1e-06
1.2e-06
1.2e-06
0
1.1e-06
1.2e-06
1.2e-06
0
1.1e-06
1.2e-06
1.2e-06
0
1.1e-06
1.2e-06
1.2e-06
0
1.1e-06
1.2e-06
1.2e-06
0
1.1e-06
1.2e-06
1.2e-06
1
1.1e-06
1.2e-06
1.2e-06
1
1.1e-06
1.2e-06
1.2e-06
2
1.1e-06
1.2e-06
1.2e-06
2
1.1e-06
1.2e-06
1.2e-06
3
1.1e-06
1.2e-06
1.2e-06
5
1.1e-06
1.2e-06
1.2e-06
32
1.3e-06
1.2e-06
1.2e-06
5
1.3e-06
1.2e-06
1.2e-06
3
1.3e-06
1.2e-06
1.2e-06
2
1.3e-06
1.2e-06
1.2e-06
1
1.3e-06
1.2e-06
1.2e-06
1
1.3e-06
1.2e-06
1.2e-06
1
1.3e-06
1.2e-06
1.2e-06
0
1.3e-06
1.2e-06
1.2e-06
1
1.3e-06
1.2e-06
1.2e-06
0
1.3e-06
1.2e-06
1.2e-06
0
1.3e-06
1.2e-06
1.3e-06
1.2e-06
1.2e-06
0
1.3e-06
1.2e-06
1.3e-06
1.2e-06
1.2e-06
0
1.3e-06
1.2e-06
1.3e-06
1.2e-06
1.3e-06
1.2e-06
1.2e-06
0
1.3e-06
1.2e-06
1.3e-06
1.2e-06
1.3e-06
1.2e-06
1.3e-06
1.2e-06
1.3e-06
1.2e-06
1.3e-06
1.2e-06
1.3e-06
1.2e-06
1.3e-06
1.3e-06
0
1.2e-06
1.3e-06
1.2e-06
1.3e-06
1.2e-06
1.3e-06
1.3e-06
0
1.2e-06
1.3e-06
1.2e-06
1.3e-06
1.3e-06
0
1.2e-06
1.3e-06
1.3e-06
0
1.2e-06
1.3e-06
1.2e-06
1.3e-06
1.3e-06
0
1.2e-06
1.3e-06
1.3e-06
1
1.2e-06
1.3e-06
1.3e-06
0
1.2e-06
1.3e-06
1.3e-06
1
1.2e-06
1.3e-06
1.3e-06
1
1.2e-06
1.3e-06
1.3e-06
2
1.2e-06
1.3e-06
1.3e-06
2
1.2e-06
1.3e-06
1.3e-06
4
1.2e-06
1.3e-06
1.3e-06
7
1.2e-06
1.3e-06
1.3e-06
17
1.4e-06
1.3e-06
1.3e-06
8
1.4e-06
1.3e-06
1.3e-06
4
1.4e-06
1.3e-06
1.3e-06
2
1.4e-06
1.3e-06
