# Pulseq sequence file
# Created by MATLAB mr toolbox

[VERSION]
major 1
minor 3
revision 0

[DEFINITIONS]
offsets_ppm -5 5 
run_m0_scan 0 

# Format of blocks:
#  #  D RF  GX  GY  GZ ADC EXT
[BLOCKS]
 1  1  0   0   0   0  0  0
 2  0  1   0   0   0  0  0
 3  2  0   0   0   0  0  0
 4  0  1   0   0   0  0  0
 5  2  0   0   0   0  0  0
 6  0  1   0   0   0  0  0
 7  2  0   0   0   0  0  0
 8  0  1   0   0   0  0  0
 9  2  0   0   0   0  0  0
10  0  1   0   0   0  0  0
11  2  0   0   0   0  0  0
12  0  1   0   0   0  0  0
13  2  0   0   0   0  0  0
14  0  1   0   0   0  0  0
15  2  0   0   0   0  0  0
16  0  1   0   0   0  0  0
17  2  0   0   0   0  0  0
18  0  1   0   0   0  0  0
19  2  0   0   0   0  0  0
20  0  1   0   0   0  0  0
21  0  0   1   1   1  0  0
22  0  0   0   0   0  1  0
23  1  0   0   0   0  0  0
24  0  2   0   0   0  0  0
25  2  0   0   0   0  0  0
26  0  2   0   0   0  0  0
27  2  0   0   0   0  0  0
28  0  2   0   0   0  0  0
29  2  0   0   0   0  0  0
30  0  2   0   0   0  0  0
31  2  0   0   0   0  0  0
32  0  2   0   0   0  0  0
33  2  0   0   0   0  0  0
34  0  2   0   0   0  0  0
35  2  0   0   0   0  0  0
36  0  2   0   0   0  0  0
37  2  0   0   0   0  0  0
38  0  2   0   0   0  0  0
39  2  0   0   0   0  0  0
40  0  2   0   0   0  0  0
41  2  0   0   0   0  0  0
42  0  2   0   0   0  0  0
43  0  0   1   1   1  0  0
44  0  0   0   0   0  1  0

# Format of RF events:
# id amplitude mag_id phase_id delay freq phase
# ..        Hz   ....     ....    us   Hz   rad
[RF]
1      250.392 1 2 100 -1490.17 0
2      250.392 1 2 100 1490.17 0

# Format of trapezoid gradients:
# id amplitude rise flat fall delay
# ..      Hz/m   us   us   us    us
[TRAP]
 1  1.36243e+06 250 4000 250   0

# Format of ADC events:
# id num dwell delay freq phase
# ..  ..    ns    us   Hz   rad
[ADC]
1 1 1000000 0 0 0

# Format of delays:
# id delay (us)
[DELAYS]
1 2000000
2 200

# Sequence Shapes
[SHAPES]

shape_id 1
num_samples 100030
0.0008517
2e-07
3e-07
2e-07
2e-07
0
3e-07
2e-07
3e-07
2e-07
2e-07
0
3e-07
2e-07
3e-07
2e-07
3e-07
2e-07
2e-07
0
3e-07
2e-07
3e-07
2e-07
2e-07
0
3e-07
2e-07
3e-07
2e-07
3e-07
2e-07
2e-07
0
3e-07
2e-07
3e-07
2e-07
3e-07
2e-07
2e-07
0
3e-07
2e-07
3e-07
2e-07
3e-07
2e-07
2e-07
0
3e-07
2e-07
3e-07
2e-07
3e-07
2e-07
3e-07
2e-07
2e-07
0
3e-07
2e-07
3e-07
2e-07
3e-07
2e-07
3e-07
2e-07
2e-07
0
3e-07
2e-07
3e-07
2e-07
3e-07
2e-07
3e-07
2e-07
2e-07
0
3e-07
2e-07
3e-07
2e-07
3e-07
2e-07
3e-07
2e-07
3e-07
2e-07
2e-07
0
3e-07
2e-07
3e-07
2e-07
3e-07
2e-07
3e-07
2e-07
3e-07
2e-07
3e-07
2e-07
2e-07
0
3e-07
2e-07
3e-07
2e-07
3e-07
2e-07
3e-07
2e-07
3e-07
2e-07
3e-07
2e-07
3e-07
2e-07
3e-07
2e-07
3e-07
2e-07
2e-07
0
3e-07
2e-07
3e-07
2e-07
3e-07
2e-07
3e-07
2e-07
3e-07
2e-07
3e-07
2e-07
3e-07
2e-07
3e-07
2e-07
3e-07
2e-07
3e-07
2e-07
3e-07
2e-07
3e-07
2e-07
3e-07
2e-07
3e-07
2e-07
3e-07
2e-07
3e-07
2e-07
3e-07
2e-07
3e-07
2e-07
3e-07
2e-07
3e-07
2e-07
3e-07
2e-07
3e-07
2e-07
3e-07
2e-07
3e-07
2e-07
3e-07
2e-07
3e-07
2e-07
3e-07
2e-07
3e-07
2e-07
3e-07
2e-07
3e-07
2e-07
3e-07
2e-07
3e-07
3e-07
0
2e-07
3e-07
2e-07
3e-07
2e-07
3e-07
2e-07
3e-07
2e-07
3e-07
2e-07
3e-07
2e-07
3e-07
2e-07
3e-07
3e-07
0
2e-07
3e-07
2e-07
3e-07
2e-07
3e-07
2e-07
3e-07
2e-07
3e-07
2e-07
3e-07
2e-07
3e-07
3e-07
0
2e-07
3e-07
2e-07
3e-07
2e-07
3e-07
2e-07
3e-07
2e-07
3e-07
3e-07
0
2e-07
3e-07
2e-07
3e-07
2e-07
3e-07
2e-07
3e-07
3e-07
0
2e-07
3e-07
2e-07
3e-07
2e-07
3e-07
2e-07
3e-07
3e-07
0
2e-07
3e-07
2e-07
3e-07
2e-07
3e-07
3e-07
0
2e-07
3e-07
2e-07
3e-07
2e-07
3e-07
3e-07
0
2e-07
3e-07
2e-07
3e-07
2e-07
3e-07
3e-07
0
2e-07
3e-07
2e-07
3e-07
2e-07
3e-07
3e-07
0
2e-07
3e-07
2e-07
3e-07
3e-07
0
2e-07
3e-07
2e-07
3e-07
2e-07
3e-07
3e-07
0
2e-07
3e-07
2e-07
3e-07
3e-07
0
2e-07
3e-07
2e-07
3e-07
3e-07
0
2e-07
3e-07
2e-07
3e-07
3e-07
0
2e-07
3e-07
2e-07
3e-07
3e-07
0
2e-07
3e-07
2e-07
3e-07
3e-07
0
2e-07
3e-07
2e-07
3e-07
3e-07
0
2e-07
3e-07
2e-07
3e-07
3e-07
0
2e-07
3e-07
3e-07
0
2e-07
3e-07
2e-07
3e-07
3e-07
0
2e-07
3e-07
2e-07
3e-07
3e-07
0
2e-07
3e-07
3e-07
0
2e-07
3e-07
2e-07
3e-07
3e-07
0
2e-07
3e-07
3e-07
0
2e-07
3e-07
2e-07
3e-07
3e-07
0
2e-07
3e-07
3e-07
0
2e-07
3e-07
3e-07
0
2e-07
3e-07
2e-07
3e-07
3e-07
0
2e-07
3e-07
3e-07
0
2e-07
3e-07
3e-07
0
2e-07
3e-07
3e-07
0
2e-07
3e-07
2e-07
3e-07
3e-07
0
2e-07
3e-07
3e-07
0
2e-07
3e-07
3e-07
0
2e-07
3e-07
3e-07
0
2e-07
3e-07
3e-07
0
2e-07
3e-07
3e-07
0
2e-07
3e-07
3e-07
0
2e-07
3e-07
3e-07
0
2e-07
3e-07
3e-07
0
2e-07
3e-07
3e-07
0
2e-07
3e-07
3e-07
0
2e-07
3e-07
3e-07
0
2e-07
3e-07
3e-07
0
2e-07
3e-07
3e-07
0
2e-07
3e-07
3e-07
0
2e-07
3e-07
3e-07
0
2e-07
3e-07
3e-07
0
2e-07
3e-07
3e-07
1
2e-07
3e-07
3e-07
0
2e-07
3e-07
3e-07
0
2e-07
3e-07
3e-07
0
2e-07
3e-07
3e-07
0
2e-07
3e-07
3e-07
1
2e-07
3e-07
3e-07
0
2e-07
3e-07
3e-07
0
2e-07
3e-07
3e-07
1
2e-07
3e-07
3e-07
0
2e-07
3e-07
3e-07
1
2e-07
3e-07
3e-07
0
2e-07
3e-07
3e-07
1
2e-07
3e-07
3e-07
0
2e-07
3e-07
3e-07
1
2e-07
3e-07
3e-07
0
2e-07
3e-07
3e-07
1
2e-07
3e-07
3e-07
0
2e-07
3e-07
3e-07
1
2e-07
3e-07
3e-07
1
2e-07
3e-07
3e-07
1
2e-07
3e-07
3e-07
0
2e-07
3e-07
3e-07
1
2e-07
3e-07
3e-07
1
2e-07
3e-07
3e-07
1
2e-07
3e-07
3e-07
1
2e-07
3e-07
3e-07
1
2e-07
3e-07
3e-07
1
2e-07
3e-07
3e-07
1
2e-07
3e-07
3e-07
1
2e-07
3e-07
3e-07
1
2e-07
3e-07
3e-07
2
2e-07
3e-07
3e-07
1
2e-07
3e-07
3e-07
1
2e-07
3e-07
3e-07
2
2e-07
3e-07
3e-07
1
2e-07
3e-07
3e-07
2
2e-07
3e-07
3e-07
1
2e-07
3e-07
3e-07
2
2e-07
3e-07
3e-07
2
2e-07
3e-07
3e-07
2
2e-07
3e-07
3e-07
2
2e-07
3e-07
3e-07
2
2e-07
3e-07
3e-07
2
2e-07
3e-07
3e-07
2
2e-07
3e-07
3e-07
2
2e-07
3e-07
3e-07
3
2e-07
3e-07
3e-07
2
2e-07
3e-07
3e-07
3
2e-07
3e-07
3e-07
3
2e-07
3e-07
3e-07
3
2e-07
3e-07
3e-07
3
2e-07
3e-07
3e-07
4
2e-07
3e-07
3e-07
3
2e-07
3e-07
3e-07
4
2e-07
3e-07
3e-07
4
2e-07
3e-07
3e-07
4
2e-07
3e-07
3e-07
5
2e-07
3e-07
3e-07
5
2e-07
3e-07
3e-07
5
2e-07
3e-07
3e-07
6
2e-07
3e-07
3e-07
6
2e-07
3e-07
3e-07
7
2e-07
3e-07
3e-07
8
2e-07
3e-07
3e-07
9
2e-07
3e-07
3e-07
10
2e-07
3e-07
3e-07
13
2e-07
3e-07
3e-07
18
2e-07
3e-07
3e-07
34
2e-07
3e-07
3e-07
30
4e-07
3e-07
3e-07
34
4e-07
3e-07
3e-07
17
4e-07
3e-07
3e-07
13
4e-07
3e-07
3e-07
10
4e-07
3e-07
3e-07
9
4e-07
3e-07
3e-07
7
4e-07
3e-07
3e-07
7
4e-07
3e-07
3e-07
6
4e-07
3e-07
3e-07
6
4e-07
3e-07
3e-07
5
4e-07
3e-07
3e-07
5
4e-07
3e-07
3e-07
4
4e-07
3e-07
3e-07
4
4e-07
3e-07
3e-07
4
4e-07
3e-07
3e-07
4
4e-07
3e-07
3e-07
3
4e-07
3e-07
3e-07
3
4e-07
3e-07
3e-07
3
4e-07
3e-07
3e-07
3
4e-07
3e-07
3e-07
2
4e-07
3e-07
3e-07
3
4e-07
3e-07
3e-07
2
4e-07
3e-07
3e-07
3
4e-07
3e-07
3e-07
2
4e-07
3e-07
3e-07
2
4e-07
3e-07
3e-07
2
4e-07
3e-07
3e-07
1
4e-07
3e-07
3e-07
2
4e-07
3e-07
3e-07
2
4e-07
3e-07
3e-07
1
4e-07
3e-07
3e-07
2
4e-07
3e-07
3e-07
1
4e-07
3e-07
3e-07
2
4e-07
3e-07
3e-07
1
4e-07
3e-07
3e-07
1
4e-07
3e-07
3e-07
1
4e-07
3e-07
3e-07
2
4e-07
3e-07
3e-07
1
4e-07
3e-07
3e-07
1
4e-07
3e-07
3e-07
1
4e-07
3e-07
3e-07
0
4e-07
3e-07
3e-07
1
4e-07
3e-07
3e-07
1
4e-07
3e-07
3e-07
1
4e-07
3e-07
3e-07
1
4e-07
3e-07
3e-07
0
4e-07
3e-07
3e-07
1
4e-07
3e-07
3e-07
0
4e-07
3e-07
3e-07
1
4e-07
3e-07
3e-07
0
4e-07
3e-07
3e-07
1
4e-07
3e-07
3e-07
0
4e-07
3e-07
3e-07
1
4e-07
3e-07
3e-07
0
4e-07
3e-07
3e-07
1
4e-07
3e-07
3e-07
0
4e-07
3e-07
3e-07
0
4e-07
3e-07
3e-07
0
4e-07
3e-07
3e-07
1
4e-07
3e-07
3e-07
0
4e-07
3e-07
3e-07
0
4e-07
3e-07
3e-07
0
4e-07
3e-07
3e-07
0
4e-07
3e-07
3e-07
0
4e-07
3e-07
3e-07
0
4e-07
3e-07
3e-07
0
4e-07
3e-07
3e-07
0
4e-07
3e-07
3e-07
0
4e-07
3e-07
3e-07
0
4e-07
3e-07
3e-07
0
4e-07
3e-07
3e-07
0
4e-07
3e-07
3e-07
0
4e-07
3e-07
3e-07
0
4e-07
3e-07
3e-07
0
4e-07
3e-07
3e-07
0
4e-07
3e-07
3e-07
0
4e-07
3e-07
4e-07
3e-07
3e-07
0
4e-07
3e-07
3e-07
0
4e-07
3e-07
3e-07
0
4e-07
3e-07
4e-07
3e-07
3e-07
0
4e-07
3e-07
3e-07
0
4e-07
3e-07
3e-07
0
4e-07
3e-07
4e-07
3e-07
3e-07
0
4e-07
3e-07
3e-07
0
4e-07
3e-07
4e-07
3e-07
3e-07
0
4e-07
3e-07
4e-07
3e-07
3e-07
0
4e-07
3e-07
4e-07
3e-07
3e-07
0
4e-07
3e-07
3e-07
0
4e-07
3e-07
4e-07
3e-07
3e-07
0
4e-07
3e-07
4e-07
3e-07
3e-07
0
4e-07
3e-07
4e-07
3e-07
4e-07
3e-07
3e-07
0
4e-07
3e-07
4e-07
3e-07
3e-07
0
4e-07
3e-07
4e-07
3e-07
3e-07
0
4e-07
3e-07
4e-07
3e-07
4e-07
3e-07
3e-07
0
4e-07
3e-07
4e-07
3e-07
4e-07
3e-07
3e-07
0
4e-07
3e-07
4e-07
3e-07
4e-07
3e-07
3e-07
0
4e-07
3e-07
4e-07
3e-07
4e-07
3e-07
4e-07
3e-07
3e-07
0
4e-07
3e-07
4e-07
3e-07
4e-07
3e-07
4e-07
3e-07
4e-07
3e-07
3e-07
0
4e-07
3e-07
4e-07
3e-07
4e-07
3e-07
4e-07
3e-07
4e-07
3e-07
3e-07
0
4e-07
3e-07
4e-07
3e-07
4e-07
3e-07
4e-07
3e-07
4e-07
3e-07
4e-07
3e-07
4e-07
3e-07
4e-07
3e-07
4e-07
3e-07
3e-07
0
4e-07
3e-07
4e-07
3e-07
4e-07
3e-07
4e-07
3e-07
4e-07
3e-07
4e-07
3e-07
4e-07
3e-07
4e-07
3e-07
4e-07
3e-07
4e-07
3e-07
4e-07
3e-07
4e-07
3e-07
4e-07
3e-07
4e-07
3e-07
4e-07
3e-07
4e-07
3e-07
4e-07
3e-07
4e-07
3e-07
4e-07
3e-07
4e-07
3e-07
4e-07
4e-07
0
3e-07
4e-07
3e-07
4e-07
3e-07
4e-07
3e-07
4e-07
3e-07
4e-07
3e-07
4e-07
3e-07
4e-07
3e-07
4e-07
3e-07
4e-07
4e-07
0
3e-07
4e-07
3e-07
4e-07
3e-07
4e-07
3e-07
4e-07
3e-07
4e-07
3e-07
4e-07
4e-07
0
3e-07
4e-07
3e-07
4e-07
3e-07
4e-07
3e-07
4e-07
4e-07
0
3e-07
4e-07
3e-07
4e-07
3e-07
4e-07
3e-07
4e-07
4e-07
0
3e-07
4e-07
3e-07
4e-07
3e-07
4e-07
4e-07
0
3e-07
4e-07
3e-07
4e-07
3e-07
4e-07
4e-07
0
3e-07
4e-07
3e-07
4e-07
3e-07
4e-07
4e-07
0
3e-07
4e-07
3e-07
4e-07
4e-07
0
3e-07
4e-07
3e-07
4e-07
4e-07
0
3e-07
4e-07
3e-07
4e-07
3e-07
4e-07
4e-07
0
3e-07
4e-07
3e-07
4e-07
4e-07
0
3e-07
4e-07
3e-07
4e-07
4e-07
0
3e-07
4e-07
4e-07
0
3e-07
4e-07
3e-07
4e-07
4e-07
0
3e-07
4e-07
3e-07
4e-07
4e-07
0
3e-07
4e-07
4e-07
0
3e-07
4e-07
3e-07
4e-07
4e-07
0
3e-07
4e-07
4e-07
0
3e-07
4e-07
3e-07
4e-07
4e-07
0
3e-07
4e-07
4e-07
0
3e-07
4e-07
4e-07
0
3e-07
4e-07
3e-07
4e-07
4e-07
0
3e-07
4e-07
4e-07
0
3e-07
4e-07
4e-07
0
3e-07
4e-07
4e-07
0
3e-07
4e-07
4e-07
0
3e-07
4e-07
4e-07
0
3e-07
4e-07
3e-07
4e-07
4e-07
0
3e-07
4e-07
4e-07
0
3e-07
4e-07
4e-07
0
3e-07
4e-07
4e-07
0
3e-07
4e-07
4e-07
1
3e-07
4e-07
4e-07
0
3e-07
4e-07
4e-07
0
3e-07
4e-07
4e-07
0
3e-07
4e-07
4e-07
0
3e-07
4e-07
4e-07
0
3e-07
4e-07
4e-07
1
3e-07
4e-07
4e-07
0
3e-07
4e-07
4e-07
0
3e-07
4e-07
4e-07
0
3e-07
4e-07
4e-07
1
3e-07
4e-07
4e-07
0
3e-07
4e-07
4e-07
1
3e-07
4e-07
4e-07
0
3e-07
4e-07
4e-07
1
3e-07
4e-07
4e-07
0
3e-07
4e-07
4e-07
1
3e-07
4e-07
4e-07
1
3e-07
4e-07
4e-07
0
3e-07
4e-07
4e-07
1
3e-07
4e-07
4e-07
1
3e-07
4e-07
4e-07
1
3e-07
4e-07
4e-07
1
3e-07
4e-07
4e-07
1
3e-07
4e-07
4e-07
1
3e-07
4e-07
4e-07
1
3e-07
4e-07
4e-07
1
3e-07
4e-07
4e-07
1
3e-07
4e-07
4e-07
1
3e-07
4e-07
4e-07
2
3e-07
4e-07
4e-07
1
3e-07
4e-07
4e-07
2
3e-07
4e-07
4e-07
1
3e-07
4e-07
4e-07
2
3e-07
4e-07
4e-07
2
3e-07
4e-07
4e-07
2
3e-07
4e-07
4e-07
2
3e-07
4e-07
4e-07
2
3e-07
4e-07
4e-07
3
3e-07
4e-07
4e-07
2
3e-07
4e-07
4e-07
3
3e-07
4e-07
4e-07
3
3e-07
4e-07
4e-07
3
3e-07
4e-07
4e-07
3
3e-07
4e-07
4e-07
4
3e-07
4e-07
4e-07
3
3e-07
4e-07
4e-07
5
3e-07
4e-07
4e-07
4
3e-07
4e-07
4e-07
5
3e-07
4e-07
4e-07
6
3e-07
4e-07
4e-07
6
3e-07
4e-07
4e-07
7
3e-07
4e-07
4e-07
9
3e-07
4e-07
4e-07
10
3e-07
4e-07
4e-07
13
3e-07
4e-07
4e-07
22
3e-07
4e-07
4e-07
53
5e-07
4e-07
4e-07
22
5e-07
4e-07
4e-07
13
5e-07
4e-07
4e-07
10
5e-07
4e-07
4e-07
8
5e-07
4e-07
4e-07
8
5e-07
4e-07
4e-07
6
5e-07
4e-07
4e-07
5
5e-07
4e-07
4e-07
5
5e-07
4e-07
4e-07
4
5e-07
4e-07
4e-07
4
5e-07
4e-07
4e-07
4
5e-07
4e-07
4e-07
3
5e-07
4e-07
4e-07
4
5e-07
4e-07
4e-07
3
5e-07
4e-07
4e-07
2
5e-07
4e-07
4e-07
3
5e-07
4e-07
4e-07
2
5e-07
4e-07
4e-07
2
5e-07
4e-07
4e-07
2
5e-07
4e-07
4e-07
2
5e-07
4e-07
4e-07
2
5e-07
4e-07
4e-07
2
5e-07
4e-07
4e-07
1
5e-07
4e-07
4e-07
2
5e-07
4e-07
4e-07
1
5e-07
4e-07
4e-07
2
5e-07
4e-07
4e-07
1
5e-07
4e-07
4e-07
1
5e-07
4e-07
4e-07
1
5e-07
4e-07
4e-07
1
5e-07
4e-07
4e-07
1
5e-07
4e-07
4e-07
1
5e-07
4e-07
4e-07
1
5e-07
4e-07
4e-07
1
5e-07
4e-07
4e-07
0
5e-07
4e-07
4e-07
1
5e-07
4e-07
4e-07
0
5e-07
4e-07
4e-07
1
5e-07
4e-07
4e-07
1
5e-07
4e-07
4e-07
0
5e-07
4e-07
4e-07
0
5e-07
4e-07
4e-07
1
5e-07
4e-07
4e-07
0
5e-07
4e-07
4e-07
0
5e-07
4e-07
4e-07
1
5e-07
4e-07
4e-07
0
5e-07
4e-07
4e-07
0
5e-07
4e-07
4e-07
0
5e-07
4e-07
4e-07
0
5e-07
4e-07
4e-07
0
5e-07
4e-07
4e-07
0
5e-07
4e-07
4e-07
1
5e-07
4e-07
4e-07
0
5e-07
4e-07
5e-07
4e-07
4e-07
0
5e-07
4e-07
4e-07
0
5e-07
4e-07
4e-07
0
5e-07
4e-07
4e-07
0
5e-07
4e-07
4e-07
0
5e-07
4e-07
4e-07
0
5e-07
4e-07
4e-07
0
5e-07
4e-07
5e-07
4e-07
4e-07
0
5e-07
4e-07
4e-07
0
5e-07
4e-07
5e-07
4e-07
4e-07
0
5e-07
4e-07
4e-07
0
5e-07
4e-07
5e-07
4e-07
4e-07
0
5e-07
4e-07
4e-07
0
5e-07
4e-07
5e-07
4e-07
4e-07
0
5e-07
4e-07
5e-07
4e-07
4e-07
0
5e-07
4e-07
5e-07
4e-07
4e-07
0
5e-07
4e-07
5e-07
4e-07
4e-07
0
5e-07
4e-07
5e-07
4e-07
4e-07
0
5e-07
4e-07
5e-07
4e-07
5e-07
4e-07
4e-07
0
5e-07
4e-07
5e-07
4e-07
4e-07
0
5e-07
4e-07
5e-07
4e-07
5e-07
4e-07
5e-07
4e-07
4e-07
0
5e-07
4e-07
5e-07
4e-07
5e-07
4e-07
4e-07
0
5e-07
4e-07
5e-07
4e-07
5e-07
4e-07
5e-07
4e-07
5e-07
4e-07
4e-07
0
5e-07
4e-07
5e-07
4e-07
5e-07
4e-07
5e-07
4e-07
5e-07
4e-07
5e-07
4e-07
4e-07
0
5e-07
4e-07
5e-07
4e-07
5e-07
4e-07
5e-07
4e-07
5e-07
4e-07
5e-07
4e-07
5e-07
4e-07
5e-07
4e-07
5e-07
4e-07
5e-07
4e-07
5e-07
4e-07
5e-07
4e-07
5e-07
4e-07
5e-07
4e-07
5e-07
4e-07
5e-07
4e-07
5e-07
4e-07
5e-07
4e-07
5e-07
4e-07
5e-07
4e-07
5e-07
4e-07
5e-07
4e-07
5e-07
4e-07
5e-07
4e-07
5e-07
4e-07
5e-07
4e-07
5e-07
5e-07
0
4e-07
5e-07
4e-07
5e-07
4e-07
5e-07
4e-07
5e-07
4e-07
5e-07
4e-07
5e-07
5e-07
0
4e-07
5e-07
4e-07
5e-07
4e-07
5e-07
4e-07
5e-07
4e-07
5e-07
5e-07
0
4e-07
5e-07
4e-07
5e-07
4e-07
5e-07
5e-07
0
4e-07
5e-07
4e-07
5e-07
4e-07
5e-07
5e-07
0
4e-07
5e-07
4e-07
5e-07
4e-07
5e-07
5e-07
0
4e-07
5e-07
4e-07
5e-07
4e-07
5e-07
5e-07
0
4e-07
5e-07
4e-07
5e-07
5e-07
0
4e-07
5e-07
4e-07
5e-07
5e-07
0
4e-07
5e-07
4e-07
5e-07
5e-07
0
4e-07
5e-07
4e-07
5e-07
5e-07
0
4e-07
5e-07
5e-07
0
4e-07
5e-07
4e-07
5e-07
5e-07
0
4e-07
5e-07
4e-07
5e-07
5e-07
0
4e-07
5e-07
5e-07
0
4e-07
5e-07
5e-07
0
4e-07
5e-07
4e-07
5e-07
5e-07
0
4e-07
5e-07
5e-07
0
4e-07
5e-07
5e-07
0
4e-07
5e-07
5e-07
0
4e-07
5e-07
4e-07
5e-07
5e-07
0
4e-07
5e-07
5e-07
0
4e-07
5e-07
5e-07
0
4e-07
5e-07
5e-07
0
4e-07
5e-07
5e-07
0
4e-07
5e-07
5e-07
0
4e-07
5e-07
5e-07
0
4e-07
5e-07
5e-07
0
4e-07
5e-07
5e-07
1
4e-07
5e-07
5e-07
0
4e-07
5e-07
5e-07
0
4e-07
5e-07
5e-07
0
4e-07
5e-07
5e-07
1
4e-07
5e-07
5e-07
0
4e-07
5e-07
5e-07
0
4e-07
5e-07
5e-07
1
4e-07
5e-07
5e-07
0
4e-07
5e-07
5e-07
1
4e-07
5e-07
5e-07
1
4e-07
5e-07
5e-07
0
4e-07
5e-07
5e-07
1
4e-07
5e-07
5e-07
1
4e-07
5e-07
5e-07
1
4e-07
5e-07
5e-07
0
4e-07
5e-07
5e-07
1
4e-07
5e-07
5e-07
1
4e-07
5e-07
5e-07
2
4e-07
5e-07
5e-07
1
4e-07
5e-07
5e-07
1
4e-07
5e-07
5e-07
2
4e-07
5e-07
5e-07
1
4e-07
5e-07
5e-07
2
4e-07
5e-07
5e-07
1
4e-07
5e-07
5e-07
2
4e-07
5e-07
5e-07
2
4e-07
5e-07
5e-07
3
4e-07
5e-07
5e-07
2
4e-07
5e-07
5e-07
3
4e-07
5e-07
5e-07
2
4e-07
5e-07
5e-07
3
4e-07
5e-07
5e-07
4
4e-07
5e-07
5e-07
3
4e-07
5e-07
5e-07
4
4e-07
5e-07
5e-07
5
4e-07
5e-07
5e-07
5
4e-07
5e-07
5e-07
5
4e-07
5e-07
5e-07
7
4e-07
5e-07
5e-07
8
4e-07
5e-07
5e-07
10
4e-07
5e-07
5e-07
13
4e-07
5e-07
5e-07
34
4e-07
5e-07
5e-07
5
6e-07
5e-07
5e-07
33
6e-07
5e-07
5e-07
14
6e-07
5e-07
5e-07
10
6e-07
5e-07
5e-07
8
6e-07
5e-07
5e-07
6
6e-07
5e-07
5e-07
6
6e-07
5e-07
5e-07
4
6e-07
5e-07
5e-07
5
6e-07
5e-07
5e-07
4
6e-07
5e-07
5e-07
3
6e-07
5e-07
5e-07
3
6e-07
5e-07
5e-07
3
6e-07
5e-07
5e-07
3
6e-07
5e-07
5e-07
2
6e-07
5e-07
5e-07
3
6e-07
5e-07
5e-07
2
6e-07
5e-07
5e-07
1
6e-07
5e-07
5e-07
2
6e-07
5e-07
5e-07
2
6e-07
5e-07
5e-07
1
6e-07
5e-07
5e-07
2
6e-07
5e-07
5e-07
1
6e-07
5e-07
5e-07
1
6e-07
5e-07
5e-07
1
6e-07
5e-07
5e-07
1
6e-07
5e-07
5e-07
1
6e-07
5e-07
5e-07
1
6e-07
5e-07
5e-07
1
6e-07
5e-07
5e-07
1
6e-07
5e-07
5e-07
0
6e-07
5e-07
5e-07
1
6e-07
5e-07
5e-07
1
6e-07
5e-07
5e-07
0
6e-07
5e-07
5e-07
0
6e-07
5e-07
5e-07
1
6e-07
5e-07
5e-07
0
6e-07
5e-07
5e-07
0
6e-07
5e-07
5e-07
1
6e-07
5e-07
5e-07
0
6e-07
5e-07
5e-07
0
6e-07
5e-07
5e-07
0
6e-07
5e-07
5e-07
0
6e-07
5e-07
5e-07
0
6e-07
5e-07
5e-07
0
6e-07
5e-07
5e-07
0
6e-07
5e-07
5e-07
0
6e-07
5e-07
5e-07
0
6e-07
5e-07
5e-07
0
6e-07
5e-07
5e-07
0
6e-07
5e-07
5e-07
0
6e-07
5e-07
6e-07
5e-07
5e-07
0
6e-07
5e-07
5e-07
0
6e-07
5e-07
5e-07
0
6e-07
5e-07
6e-07
5e-07
5e-07
0
6e-07
5e-07
5e-07
0
6e-07
5e-07
6e-07
5e-07
5e-07
0
6e-07
5e-07
6e-07
5e-07
5e-07
0
6e-07
5e-07
6e-07
5e-07
5e-07
0
6e-07
5e-07
6e-07
5e-07
5e-07
0
6e-07
5e-07
6e-07
5e-07
5e-07
0
6e-07
5e-07
6e-07
5e-07
6e-07
5e-07
5e-07
0
6e-07
5e-07
6e-07
5e-07
6e-07
5e-07
5e-07
0
6e-07
5e-07
6e-07
5e-07
6e-07
5e-07
5e-07
0
6e-07
5e-07
6e-07
5e-07
6e-07
5e-07
6e-07
5e-07
6e-07
5e-07
5e-07
0
6e-07
5e-07
6e-07
5e-07
6e-07
5e-07
6e-07
5e-07
6e-07
5e-07
6e-07
5e-07
5e-07
0
6e-07
5e-07
6e-07
5e-07
6e-07
5e-07
6e-07
5e-07
6e-07
5e-07
6e-07
5e-07
6e-07
5e-07
6e-07
5e-07
6e-07
5e-07
6e-07
5e-07
6e-07
5e-07
6e-07
5e-07
6e-07
5e-07
6e-07
5e-07
6e-07
5e-07
6e-07
5e-07
6e-07
5e-07
6e-07
5e-07
6e-07
5e-07
6e-07
6e-07
0
5e-07
6e-07
5e-07
6e-07
5e-07
6e-07
5e-07
6e-07
5e-07
6e-07
5e-07
6e-07
6e-07
0
5e-07
6e-07
5e-07
6e-07
5e-07
6e-07
5e-07
6e-07
5e-07
6e-07
6e-07
0
5e-07
6e-07
5e-07
6e-07
5e-07
6e-07
6e-07
0
5e-07
6e-07
5e-07
6e-07
5e-07
6e-07
6e-07
0
5e-07
6e-07
5e-07
6e-07
5e-07
6e-07
6e-07
0
5e-07
6e-07
5e-07
6e-07
6e-07
0
5e-07
6e-07
5e-07
6e-07
6e-07
0
5e-07
6e-07
5e-07
6e-07
6e-07
0
5e-07
6e-07
5e-07
6e-07
6e-07
0
5e-07
6e-07
6e-07
0
5e-07
6e-07
5e-07
6e-07
6e-07
0
5e-07
6e-07
6e-07
0
5e-07
6e-07
5e-07
6e-07
6e-07
0
5e-07
6e-07
6e-07
0
5e-07
6e-07
6e-07
0
5e-07
6e-07
6e-07
0
5e-07
6e-07
6e-07
0
5e-07
6e-07
5e-07
6e-07
6e-07
0
5e-07
6e-07
6e-07
0
5e-07
6e-07
6e-07
0
5e-07
6e-07
6e-07
0
5e-07
6e-07
6e-07
1
5e-07
6e-07
6e-07
0
5e-07
6e-07
6e-07
0
5e-07
6e-07
6e-07
0
5e-07
6e-07
6e-07
0
5e-07
6e-07
6e-07
1
5e-07
6e-07
6e-07
0
5e-07
6e-07
6e-07
0
5e-07
6e-07
6e-07
1
5e-07
6e-07
6e-07
0
5e-07
6e-07
6e-07
1
5e-07
6e-07
6e-07
1
5e-07
6e-07
6e-07
0
5e-07
6e-07
6e-07
1
5e-07
6e-07
6e-07
1
5e-07
6e-07
6e-07
1
5e-07
6e-07
6e-07
1
5e-07
6e-07
6e-07
1
5e-07
6e-07
6e-07
2
5e-07
6e-07
6e-07
1
5e-07
6e-07
6e-07
2
5e-07
6e-07
6e-07
1
5e-07
6e-07
6e-07
2
5e-07
6e-07
6e-07
2
5e-07
6e-07
6e-07
2
5e-07
6e-07
6e-07
3
5e-07
6e-07
6e-07
2
5e-07
6e-07
6e-07
3
5e-07
6e-07
6e-07
3
5e-07
6e-07
6e-07
4
5e-07
6e-07
6e-07
3
5e-07
6e-07
6e-07
5
5e-07
6e-07
6e-07
5
5e-07
6e-07
6e-07
6
5e-07
6e-07
6e-07
7
5e-07
6e-07
6e-07
9
5e-07
6e-07
6e-07
13
5e-07
6e-07
6e-07
67
7e-07
6e-07
6e-07
13
7e-07
6e-07
6e-07
9
7e-07
6e-07
6e-07
7
7e-07
6e-07
6e-07
6
7e-07
6e-07
6e-07
5
7e-07
6e-07
6e-07
5
7e-07
6e-07
6e-07
3
7e-07
6e-07
6e-07
4
7e-07
6e-07
6e-07
3
7e-07
6e-07
6e-07
3
7e-07
6e-07
6e-07
2
7e-07
6e-07
6e-07
2
7e-07
6e-07
6e-07
2
7e-07
6e-07
6e-07
2
7e-07
6e-07
6e-07
2
7e-07
6e-07
6e-07
1
7e-07
6e-07
6e-07
2
7e-07
6e-07
6e-07
1
7e-07
6e-07
6e-07
1
7e-07
6e-07
6e-07
1
7e-07
6e-07
6e-07
1
7e-07
6e-07
6e-07
1
7e-07
6e-07
6e-07
1
7e-07
6e-07
6e-07
1
7e-07
6e-07
6e-07
0
7e-07
6e-07
6e-07
1
7e-07
6e-07
6e-07
1
7e-07
6e-07
6e-07
0
7e-07
6e-07
6e-07
0
7e-07
6e-07
6e-07
1
7e-07
6e-07
6e-07
0
7e-07
6e-07
6e-07
0
7e-07
6e-07
6e-07
0
7e-07
6e-07
6e-07
0
7e-07
6e-07
6e-07
1
7e-07
6e-07
6e-07
0
7e-07
6e-07
6e-07
0
7e-07
6e-07
6e-07
0
7e-07
6e-07
7e-07
6e-07
6e-07
0
7e-07
6e-07
6e-07
0
7e-07
6e-07
6e-07
0
7e-07
6e-07
6e-07
0
7e-07
6e-07
7e-07
6e-07
6e-07
0
7e-07
6e-07
6e-07
0
7e-07
6e-07
6e-07
0
7e-07
6e-07
7e-07
6e-07
6e-07
0
7e-07
6e-07
7e-07
6e-07
6e-07
0
7e-07
6e-07
7e-07
6e-07
6e-07
0
7e-07
6e-07
7e-07
6e-07
6e-07
0
7e-07
6e-07
7e-07
6e-07
6e-07
0
7e-07
6e-07
7e-07
6e-07
7e-07
6e-07
6e-07
0
7e-07
6e-07
7e-07
6e-07
7e-07
6e-07
6e-07
0
7e-07
6e-07
7e-07
6e-07
7e-07
6e-07
7e-07
6e-07
6e-07
0
7e-07
6e-07
7e-07
6e-07
7e-07
6e-07
7e-07
6e-07
7e-07
6e-07
6e-07
0
7e-07
6e-07
7e-07
6e-07
7e-07
6e-07
7e-07
6e-07
7e-07
6e-07
7e-07
6e-07
7e-07
6e-07
7e-07
6e-07
7e-07
6e-07
7e-07
6e-07
7e-07
6e-07
7e-07
6e-07
7e-07
6e-07
7e-07
6e-07
7e-07
6e-07
7e-07
6e-07
7e-07
6e-07
7e-07
6e-07
7e-07
6e-07
7e-07
7e-07
0
6e-07
7e-07
6e-07
7e-07
6e-07
7e-07
6e-07
7e-07
6e-07
7e-07
6e-07
7e-07
7e-07
0
6e-07
7e-07
6e-07
7e-07
6e-07
7e-07
6e-07
7e-07
7e-07
0
6e-07
7e-07
6e-07
7e-07
6e-07
7e-07
7e-07
0
6e-07
7e-07
6e-07
7e-07
6e-07
7e-07
7e-07
0
6e-07
7e-07
6e-07
7e-07
7e-07
0
6e-07
7e-07
6e-07
7e-07
7e-07
0
6e-07
7e-07
6e-07
7e-07
7e-07
0
6e-07
7e-07
6e-07
7e-07
7e-07
0
6e-07
7e-07
7e-07
0
6e-07
7e-07
6e-07
7e-07
7e-07
0
6e-07
7e-07
7e-07
0
6e-07
7e-07
7e-07
0
6e-07
7e-07
6e-07
7e-07
7e-07
0
6e-07
7e-07
7e-07
0
6e-07
7e-07
7e-07
0
6e-07
7e-07
7e-07
0
6e-07
7e-07
7e-07
0
6e-07
7e-07
7e-07
0
6e-07
7e-07
7e-07
0
6e-07
7e-07
7e-07
0
6e-07
7e-07
7e-07
0
6e-07
7e-07
7e-07
1
6e-07
7e-07
7e-07
0
6e-07
7e-07
7e-07
0
6e-07
7e-07
7e-07
1
6e-07
7e-07
7e-07
0
6e-07
7e-07
7e-07
1
6e-07
7e-07
7e-07
0
6e-07
7e-07
7e-07
1
6e-07
7e-07
7e-07
1
6e-07
7e-07
7e-07
1
6e-07
7e-07
7e-07
1
6e-07
7e-07
7e-07
1
6e-07
7e-07
7e-07
1
6e-07
7e-07
7e-07
1
6e-07
7e-07
7e-07
2
6e-07
7e-07
7e-07
1
6e-07
7e-07
7e-07
2
6e-07
7e-07
7e-07
2
6e-07
7e-07
7e-07
2
6e-07
7e-07
7e-07
3
6e-07
7e-07
7e-07
2
6e-07
7e-07
7e-07
3
6e-07
7e-07
7e-07
4
6e-07
7e-07
7e-07
3
6e-07
7e-07
7e-07
5
6e-07
7e-07
7e-07
5
6e-07
7e-07
7e-07
6
6e-07
7e-07
7e-07
8
6e-07
7e-07
7e-07
11
6e-07
7e-07
7e-07
24
6e-07
7e-07
7e-07
15
8e-07
7e-07
7e-07
24
8e-07
7e-07
7e-07
11
8e-07
7e-07
7e-07
8
8e-07
7e-07
7e-07
6
8e-07
7e-07
7e-07
5
8e-07
7e-07
7e-07
5
8e-07
7e-07
7e-07
3
8e-07
7e-07
7e-07
4
8e-07
7e-07
7e-07
2
8e-07
7e-07
7e-07
3
8e-07
7e-07
7e-07
2
8e-07
7e-07
7e-07
2
8e-07
7e-07
7e-07
2
8e-07
7e-07
7e-07
2
8e-07
7e-07
7e-07
1
8e-07
7e-07
7e-07
2
8e-07
7e-07
7e-07
1
8e-07
7e-07
7e-07
1
8e-07
7e-07
7e-07
1
8e-07
7e-07
7e-07
1
8e-07
7e-07
7e-07
1
8e-07
7e-07
7e-07
0
8e-07
7e-07
7e-07
1
8e-07
7e-07
7e-07
1
8e-07
7e-07
7e-07
0
8e-07
7e-07
7e-07
0
8e-07
7e-07
7e-07
1
8e-07
7e-07
7e-07
0
8e-07
7e-07
7e-07
0
8e-07
7e-07
7e-07
0
8e-07
7e-07
7e-07
1
8e-07
7e-07
7e-07
0
8e-07
7e-07
7e-07
0
8e-07
7e-07
7e-07
0
8e-07
7e-07
8e-07
7e-07
7e-07
0
8e-07
7e-07
7e-07
0
8e-07
7e-07
7e-07
0
8e-07
7e-07
7e-07
0
8e-07
7e-07
8e-07
7e-07
7e-07
0
8e-07
7e-07
7e-07
0
8e-07
7e-07
8e-07
7e-07
7e-07
0
8e-07
7e-07
7e-07
0
8e-07
7e-07
8e-07
7e-07
7e-07
0
8e-07
7e-07
8e-07
7e-07
8e-07
7e-07
7e-07
0
8e-07
7e-07
8e-07
7e-07
7e-07
0
8e-07
7e-07
8e-07
7e-07
8e-07
7e-07
7e-07
0
8e-07
7e-07
8e-07
7e-07
8e-07
7e-07
7e-07
0
8e-07
7e-07
8e-07
7e-07
8e-07
7e-07
8e-07
7e-07
8e-07
7e-07
8e-07
7e-07
7e-07
0
8e-07
7e-07
8e-07
7e-07
8e-07
7e-07
8e-07
7e-07
8e-07
7e-07
8e-07
7e-07
8e-07
7e-07
8e-07
7e-07
8e-07
7e-07
8e-07
7e-07
8e-07
7e-07
8e-07
7e-07
8e-07
7e-07
8e-07
7e-07
8e-07
7e-07
8e-07
7e-07
8e-07
7e-07
8e-07
8e-07
0
7e-07
8e-07
7e-07
8e-07
7e-07
8e-07
7e-07
8e-07
7e-07
8e-07
7e-07
8e-07
8e-07
0
7e-07
8e-07
7e-07
8e-07
7e-07
8e-07
8e-07
0
7e-07
8e-07
7e-07
8e-07
7e-07
8e-07
8e-07
0
7e-07
8e-07
7e-07
8e-07
7e-07
8e-07
8e-07
0
7e-07
8e-07
7e-07
8e-07
8e-07
0
7e-07
8e-07
7e-07
8e-07
8e-07
0
7e-07
8e-07
8e-07
0
7e-07
8e-07
7e-07
8e-07
8e-07
0
7e-07
8e-07
8e-07
0
7e-07
8e-07
7e-07
8e-07
8e-07
0
7e-07
8e-07
8e-07
0
7e-07
8e-07
8e-07
0
7e-07
8e-07
8e-07
0
7e-07
8e-07
7e-07
8e-07
8e-07
0
7e-07
8e-07
8e-07
0
7e-07
8e-07
8e-07
1
7e-07
8e-07
8e-07
0
7e-07
8e-07
8e-07
0
7e-07
8e-07
8e-07
0
7e-07
8e-07
8e-07
0
7e-07
8e-07
8e-07
1
7e-07
8e-07
8e-07
0
7e-07
8e-07
8e-07
1
7e-07
8e-07
8e-07
0
7e-07
8e-07
8e-07
1
7e-07
8e-07
8e-07
1
7e-07
8e-07
8e-07
1
7e-07
8e-07
8e-07
1
7e-07
8e-07
8e-07
1
7e-07
8e-07
8e-07
1
7e-07
8e-07
8e-07
2
7e-07
8e-07
8e-07
1
7e-07
8e-07
8e-07
2
7e-07
8e-07
8e-07
2
7e-07
8e-07
8e-07
2
7e-07
8e-07
8e-07
3
7e-07
8e-07
8e-07
2
7e-07
8e-07
8e-07
4
7e-07
8e-07
8e-07
3
7e-07
8e-07
8e-07
5
7e-07
8e-07
8e-07
5
7e-07
8e-07
8e-07
6
7e-07
8e-07
8e-07
9
7e-07
8e-07
8e-07
13
7e-07
8e-07
8e-07
45
9e-07
8e-07
8e-07
14
9e-07
8e-07
8e-07
9
9e-07
8e-07
8e-07
6
9e-07
8e-07
8e-07
5
9e-07
8e-07
8e-07
4
9e-07
8e-07
8e-07
4
9e-07
8e-07
8e-07
3
9e-07
8e-07
8e-07
3
9e-07
8e-07
8e-07
2
9e-07
8e-07
8e-07
2
9e-07
8e-07
8e-07
2
9e-07
8e-07
8e-07
2
9e-07
8e-07
8e-07
1
9e-07
8e-07
8e-07
2
9e-07
8e-07
8e-07
1
9e-07
8e-07
8e-07
1
9e-07
8e-07
8e-07
1
9e-07
8e-07
8e-07
1
9e-07
8e-07
8e-07
1
9e-07
8e-07
8e-07
0
9e-07
8e-07
8e-07
1
9e-07
8e-07
8e-07
0
9e-07
8e-07
8e-07
0
9e-07
8e-07
8e-07
1
9e-07
8e-07
8e-07
0
9e-07
8e-07
8e-07
0
9e-07
8e-07
8e-07
0
9e-07
8e-07
8e-07
0
9e-07
8e-07
8e-07
0
9e-07
8e-07
8e-07
0
9e-07
8e-07
8e-07
0
9e-07
8e-07
8e-07
0
9e-07
8e-07
8e-07
0
9e-07
8e-07
8e-07
0
9e-07
8e-07
9e-07
8e-07
8e-07
0
9e-07
8e-07
8e-07
0
9e-07
8e-07
9e-07
8e-07
8e-07
0
9e-07
8e-07
9e-07
8e-07
8e-07
0
9e-07
8e-07
9e-07
8e-07
8e-07
0
9e-07
8e-07
9e-07
8e-07
8e-07
0
9e-07
8e-07
9e-07
8e-07
8e-07
0
9e-07
8e-07
9e-07
8e-07
9e-07
8e-07
9e-07
8e-07
8e-07
0
9e-07
8e-07
9e-07
8e-07
9e-07
8e-07
9e-07
8e-07
9e-07
8e-07
8e-07
0
9e-07
8e-07
9e-07
8e-07
9e-07
8e-07
9e-07
8e-07
9e-07
8e-07
9e-07
8e-07
9e-07
8e-07
9e-07
8e-07
9e-07
8e-07
9e-07
8e-07
9e-07
8e-07
9e-07
8e-07
9e-07
8e-07
9e-07
8e-07
9e-07
8e-07
9e-07
8e-07
9e-07
8e-07
9e-07
9e-07
0
8e-07
9e-07
8e-07
9e-07
8e-07
9e-07
8e-07
9e-07
8e-07
9e-07
9e-07
0
8e-07
9e-07
8e-07
9e-07
8e-07
9e-07
9e-07
0
8e-07
9e-07
8e-07
9e-07
8e-07
9e-07
9e-07
0
8e-07
9e-07
8e-07
9e-07
9e-07
0
8e-07
9e-07
8e-07
9e-07
9e-07
0
8e-07
9e-07
8e-07
9e-07
9e-07
0
8e-07
9e-07
8e-07
9e-07
9e-07
0
8e-07
9e-07
9e-07
0
8e-07
9e-07
9e-07
0
8e-07
9e-07
8e-07
9e-07
9e-07
0
8e-07
9e-07
9e-07
0
8e-07
9e-07
9e-07
0
8e-07
9e-07
9e-07
0
8e-07
9e-07
9e-07
0
8e-07
9e-07
9e-07
0
8e-07
9e-07
9e-07
0
8e-07
9e-07
9e-07
1
8e-07
9e-07
9e-07
0
8e-07
9e-07
9e-07
0
8e-07
9e-07
9e-07
1
8e-07
9e-07
9e-07
0
8e-07
9e-07
9e-07
1
8e-07
9e-07
9e-07
1
8e-07
9e-07
9e-07
0
8e-07
9e-07
9e-07
1
8e-07
9e-07
9e-07
1
8e-07
9e-07
9e-07
2
8e-07
9e-07
9e-07
1
8e-07
9e-07
9e-07
2
8e-07
9e-07
9e-07
1
8e-07
9e-07
9e-07
2
8e-07
9e-07
9e-07
3
8e-07
9e-07
9e-07
2
8e-07
9e-07
9e-07
3
8e-07
9e-07
9e-07
4
8e-07
9e-07
9e-07
4
8e-07
9e-07
9e-07
5
8e-07
9e-07
9e-07
7
8e-07
9e-07
9e-07
9
8e-07
9e-07
9e-07
18
8e-07
9e-07
9e-07
23
1e-06
9e-07
9e-07
18
1e-06
9e-07
9e-07
9
1e-06
9e-07
9e-07
6
1e-06
9e-07
9e-07
5
1e-06
9e-07
9e-07
5
1e-06
9e-07
9e-07
3
1e-06
9e-07
9e-07
3
1e-06
9e-07
9e-07
3
1e-06
9e-07
9e-07
2
1e-06
9e-07
9e-07
2
1e-06
9e-07
9e-07
2
1e-06
9e-07
9e-07
1
1e-06
9e-07
9e-07
1
1e-06
9e-07
9e-07
2
1e-06
9e-07
9e-07
1
1e-06
9e-07
9e-07
0
1e-06
9e-07
9e-07
1
1e-06
9e-07
9e-07
1
1e-06
9e-07
9e-07
0
1e-06
9e-07
9e-07
1
1e-06
9e-07
9e-07
0
1e-06
9e-07
9e-07
1
1e-06
9e-07
9e-07
0
1e-06
9e-07
9e-07
0
1e-06
9e-07
9e-07
0
1e-06
9e-07
9e-07
0
1e-06
9e-07
9e-07
0
1e-06
9e-07
9e-07
0
1e-06
9e-07
9e-07
0
1e-06
9e-07
9e-07
0
1e-06
9e-07
1e-06
9e-07
9e-07
0
1e-06
9e-07
9e-07
0
1e-06
9e-07
9e-07
0
1e-06
9e-07
1e-06
9e-07
9e-07
0
1e-06
9e-07
1e-06
9e-07
9e-07
0
1e-06
9e-07
1e-06
9e-07
9e-07
0
1e-06
9e-07
1e-06
9e-07
1e-06
9e-07
9e-07
0
1e-06
9e-07
1e-06
9e-07
1e-06
9e-07
9e-07
0
1e-06
9e-07
1e-06
9e-07
1e-06
9e-07
1e-06
9e-07
1e-06
9e-07
9e-07
0
1e-06
9e-07
1e-06
9e-07
1e-06
9e-07
1e-06
9e-07
1e-06
9e-07
1e-06
9e-07
1e-06
9e-07
1e-06
9e-07
1e-06
9e-07
1e-06
9e-07
1e-06
9e-07
1e-06
9e-07
1e-06
9e-07
1e-06
9e-07
1e-06
9e-07
1e-06
9e-07
1e-06
1e-06
0
9e-07
1e-06
9e-07
1e-06
9e-07
1e-06
9e-07
1e-06
1e-06
0
9e-07
1e-06
9e-07
1e-06
9e-07
1e-06
1e-06
0
9e-07
1e-06
9e-07
1e-06
9e-07
1e-06
1e-06
0
9e-07
1e-06
9e-07
1e-06
1e-06
0
9e-07
1e-06
9e-07
1e-06
1e-06
0
9e-07
1e-06
9e-07
1e-06
1e-06
0
9e-07
1e-06
1e-06
0
9e-07
1e-06
9e-07
1e-06
1e-06
0
9e-07
1e-06
1e-06
0
9e-07
1e-06
1e-06
0
9e-07
1e-06
1e-06
0
9e-07
1e-06
1e-06
0
9e-07
1e-06
1e-06
0
9e-07
1e-06
1e-06
0
9e-07
1e-06
1e-06
0
9e-07
1e-06
1e-06
1
9e-07
1e-06
1e-06
0
9e-07
1e-06
1e-06
0
9e-07
1e-06
1e-06
1
9e-07
1e-06
1e-06
0
9e-07
1e-06
1e-06
1
9e-07
1e-06
1e-06
1
9e-07
1e-06
1e-06
1
9e-07
1e-06
1e-06
1
9e-07
1e-06
1e-06
1
9e-07
1e-06
1e-06
2
9e-07
1e-06
1e-06
2
9e-07
1e-06
1e-06
2
9e-07
1e-06
1e-06
2
9e-07
1e-06
1e-06
2
9e-07
1e-06
1e-06
3
9e-07
1e-06
1e-06
4
9e-07
1e-06
1e-06
4
9e-07
1e-06
1e-06
6
9e-07
1e-06
1e-06
7
9e-07
1e-06
1e-06
12
9e-07
1e-06
1e-06
42
1.1e-06
1e-06
1e-06
12
1.1e-06
1e-06
1e-06
7
1.1e-06
1e-06
1e-06
6
1.1e-06
1e-06
1e-06
4
1.1e-06
1e-06
1e-06
4
1.1e-06
1e-06
1e-06
3
1.1e-06
1e-06
1e-06
2
1.1e-06
1e-06
1e-06
2
1.1e-06
1e-06
1e-06
2
1.1e-06
1e-06
1e-06
2
1.1e-06
1e-06
1e-06
1
1.1e-06
1e-06
1e-06
2
1.1e-06
1e-06
1e-06
1
1.1e-06
1e-06
1e-06
1
1.1e-06
1e-06
1e-06
0
1.1e-06
1e-06
1e-06
1
1.1e-06
1e-06
1e-06
1
1.1e-06
1e-06
1e-06
0
1.1e-06
1e-06
1e-06
0
1.1e-06
1e-06
1e-06
1
1.1e-06
1e-06
1e-06
0
1.1e-06
1e-06
1e-06
0
1.1e-06
1e-06
1e-06
0
1.1e-06
1e-06
1e-06
0
1.1e-06
1e-06
1e-06
0
1.1e-06
1e-06
1e-06
0
1.1e-06
1e-06
1e-06
0
1.1e-06
1e-06
1.1e-06
1e-06
1e-06
0
1.1e-06
1e-06
1e-06
0
1.1e-06
1e-06
1.1e-06
1e-06
1e-06
0
1.1e-06
1e-06
1e-06
0
1.1e-06
1e-06
1.1e-06
1e-06
1e-06
0
1.1e-06
1e-06
1.1e-06
1e-06
1.1e-06
1e-06
1e-06
0
1.1e-06
1e-06
1.1e-06
1e-06
1.1e-06
1e-06
1e-06
0
1.1e-06
1e-06
1.1e-06
1e-06
1.1e-06
1e-06
1.1e-06
1e-06
1e-06
0
1.1e-06
1e-06
1.1e-06
1e-06
1.1e-06
1e-06
1.1e-06
1e-06
1.1e-06
1e-06
1.1e-06
1e-06
1.1e-06
1e-06
1.1e-06
1e-06
1.1e-06
1e-06
1.1e-06
1e-06
1.1e-06
1e-06
1.1e-06
1e-06
1.1e-06
1e-06
1.1e-06
1e-06
1.1e-06
1e-06
1.1e-06
1e-06
1.1e-06
1e-06
1.1e-06
1.1e-06
0
1e-06
1.1e-06
1e-06
1.1e-06
1e-06
1.1e-06
1e-06
1.1e-06
1.1e-06
0
1e-06
1.1e-06
1e-06
1.1e-06
1e-06
1.1e-06
1.1e-06
0
1e-06
1.1e-06
1e-06
1.1e-06
1.1e-06
0
1e-06
1.1e-06
1e-06
1.1e-06
1.1e-06
0
1e-06
1.1e-06
1e-06
1.1e-06
1.1e-06
0
1e-06
1.1e-06
1.1e-06
0
1e-06
1.1e-06
1e-06
1.1e-06
1.1e-06
0
1e-06
1.1e-06
1.1e-06
0
1e-06
1.1e-06
1.1e-06
0
1e-06
1.1e-06
1.1e-06
0
1e-06
1.1e-06
1.1e-06
0
1e-06
1.1e-06
1.1e-06
0
1e-06
1.1e-06
1.1e-06
0
1e-06
1.1e-06
1.1e-06
0
1e-06
1.1e-06
1.1e-06
0
1e-06
1.1e-06
1.1e-06
1
1e-06
1.1e-06
1.1e-06
0
1e-06
1.1e-06
1.1e-06
1
1e-06
1.1e-06
1.1e-06
0
1e-06
1.1e-06
1.1e-06
1
1e-06
1.1e-06
1.1e-06
1
1e-06
1.1e-06
1.1e-06
1
1e-06
1.1e-06
1.1e-06
1
1e-06
1.1e-06
1.1e-06
2
1e-06
1.1e-06
1.1e-06
2
1e-06
1.1e-06
1.1e-06
2
1e-06
1.1e-06
1.1e-06
2
1e-06
1.1e-06
1.1e-06
3
1e-06
1.1e-06
1.1e-06
3
1e-06
1.1e-06
1.1e-06
4
1e-06
1.1e-06
1.1e-06
5
1e-06
1.1e-06
1.1e-06
7
1e-06
1.1e-06
1.1e-06
11
1e-06
1.1e-06
1.1e-06
42
1.2e-06
1.1e-06
1.1e-06
11
1.2e-06
1.1e-06
1.1e-06
7
1.2e-06
1.1e-06
1.1e-06
5
1.2e-06
1.1e-06
1.1e-06
4
1.2e-06
1.1e-06
1.1e-06
3
1.2e-06
1.1e-06
1.1e-06
3
1.2e-06
1.1e-06
1.1e-06
2
1.2e-06
1.1e-06
1.1e-06
2
1.2e-06
1.1e-06
1.1e-06
2
1.2e-06
1.1e-06
1.1e-06
1
1.2e-06
1.1e-06
1.1e-06
1
1.2e-06
1.1e-06
1.1e-06
1
1.2e-06
1.1e-06
1.1e-06
1
1.2e-06
