# Pulseq sequence file
# Created by MATLAB mr toolbox

[VERSION]
major 1
minor 3
revision 0

[DEFINITIONS]
offsets_ppm -5 -4.79592 -4.59184 -4.38776 -4.18367 -3.97959 -3.77551 -3.57143 -3.36735 -3.16327 -2.95918 -2.7551 -2.55102 -2.34694 -2.14286 -1.93878 -1.73469 -1.53061 -1.32653 -1.12245 -0.918367 -0.714286 -0.510204 -0.306122 -0.102041 0.102041 0.306122 0.510204 0.714286 0.918367 1.12245 1.32653 1.53061 1.73469 1.93878 2.14286 2.34694 2.55102 2.7551 2.95918 3.16327 3.36735 3.57143 3.77551 3.97959 4.18367 4.38776 4.59184 4.79592 5 
run_m0_scan 0 

# Format of blocks:
#  #  D RF  GX  GY  GZ ADC EXT
[BLOCKS]
   1  1  0   0   0   0  0  0
   2  0  1   0   0   0  0  0
   3  2  0   0   0   0  0  0
   4  0  1   0   0   0  0  0
   5  2  0   0   0   0  0  0
   6  0  1   0   0   0  0  0
   7  2  0   0   0   0  0  0
   8  0  1   0   0   0  0  0
   9  2  0   0   0   0  0  0
  10  0  1   0   0   0  0  0
  11  2  0   0   0   0  0  0
  12  0  1   0   0   0  0  0
  13  2  0   0   0   0  0  0
  14  0  1   0   0   0  0  0
  15  2  0   0   0   0  0  0
  16  0  1   0   0   0  0  0
  17  2  0   0   0   0  0  0
  18  0  1   0   0   0  0  0
  19  2  0   0   0   0  0  0
  20  0  1   0   0   0  0  0
  21  0  0   1   1   1  0  0
  22  0  0   0   0   0  1  0
  23  1  0   0   0   0  0  0
  24  0  2   0   0   0  0  0
  25  2  0   0   0   0  0  0
  26  0  2   0   0   0  0  0
  27  2  0   0   0   0  0  0
  28  0  2   0   0   0  0  0
  29  2  0   0   0   0  0  0
  30  0  2   0   0   0  0  0
  31  2  0   0   0   0  0  0
  32  0  2   0   0   0  0  0
  33  2  0   0   0   0  0  0
  34  0  2   0   0   0  0  0
  35  2  0   0   0   0  0  0
  36  0  2   0   0   0  0  0
  37  2  0   0   0   0  0  0
  38  0  2   0   0   0  0  0
  39  2  0   0   0   0  0  0
  40  0  2   0   0   0  0  0
  41  2  0   0   0   0  0  0
  42  0  2   0   0   0  0  0
  43  0  0   1   1   1  0  0
  44  0  0   0   0   0  1  0
  45  1  0   0   0   0  0  0
  46  0  3   0   0   0  0  0
  47  2  0   0   0   0  0  0
  48  0  3   0   0   0  0  0
  49  2  0   0   0   0  0  0
  50  0  3   0   0   0  0  0
  51  2  0   0   0   0  0  0
  52  0  3   0   0   0  0  0
  53  2  0   0   0   0  0  0
  54  0  3   0   0   0  0  0
  55  2  0   0   0   0  0  0
  56  0  3   0   0   0  0  0
  57  2  0   0   0   0  0  0
  58  0  3   0   0   0  0  0
  59  2  0   0   0   0  0  0
  60  0  3   0   0   0  0  0
  61  2  0   0   0   0  0  0
  62  0  3   0   0   0  0  0
  63  2  0   0   0   0  0  0
  64  0  3   0   0   0  0  0
  65  0  0   1   1   1  0  0
  66  0  0   0   0   0  1  0
  67  1  0   0   0   0  0  0
  68  0  4   0   0   0  0  0
  69  2  0   0   0   0  0  0
  70  0  4   0   0   0  0  0
  71  2  0   0   0   0  0  0
  72  0  4   0   0   0  0  0
  73  2  0   0   0   0  0  0
  74  0  4   0   0   0  0  0
  75  2  0   0   0   0  0  0
  76  0  4   0   0   0  0  0
  77  2  0   0   0   0  0  0
  78  0  4   0   0   0  0  0
  79  2  0   0   0   0  0  0
  80  0  4   0   0   0  0  0
  81  2  0   0   0   0  0  0
  82  0  4   0   0   0  0  0
  83  2  0   0   0   0  0  0
  84  0  4   0   0   0  0  0
  85  2  0   0   0   0  0  0
  86  0  4   0   0   0  0  0
  87  0  0   1   1   1  0  0
  88  0  0   0   0   0  1  0
  89  1  0   0   0   0  0  0
  90  0  5   0   0   0  0  0
  91  2  0   0   0   0  0  0
  92  0  5   0   0   0  0  0
  93  2  0   0   0   0  0  0
  94  0  5   0   0   0  0  0
  95  2  0   0   0   0  0  0
  96  0  5   0   0   0  0  0
  97  2  0   0   0   0  0  0
  98  0  5   0   0   0  0  0
  99  2  0   0   0   0  0  0
 100  0  5   0   0   0  0  0
 101  2  0   0   0   0  0  0
 102  0  5   0   0   0  0  0
 103  2  0   0   0   0  0  0
 104  0  5   0   0   0  0  0
 105  2  0   0   0   0  0  0
 106  0  5   0   0   0  0  0
 107  2  0   0   0   0  0  0
 108  0  5   0   0   0  0  0
 109  0  0   1   1   1  0  0
 110  0  0   0   0   0  1  0
 111  1  0   0   0   0  0  0
 112  0  6   0   0   0  0  0
 113  2  0   0   0   0  0  0
 114  0  6   0   0   0  0  0
 115  2  0   0   0   0  0  0
 116  0  6   0   0   0  0  0
 117  2  0   0   0   0  0  0
 118  0  6   0   0   0  0  0
 119  2  0   0   0   0  0  0
 120  0  6   0   0   0  0  0
 121  2  0   0   0   0  0  0
 122  0  6   0   0   0  0  0
 123  2  0   0   0   0  0  0
 124  0  6   0   0   0  0  0
 125  2  0   0   0   0  0  0
 126  0  6   0   0   0  0  0
 127  2  0   0   0   0  0  0
 128  0  6   0   0   0  0  0
 129  2  0   0   0   0  0  0
 130  0  6   0   0   0  0  0
 131  0  0   1   1   1  0  0
 132  0  0   0   0   0  1  0
 133  1  0   0   0   0  0  0
 134  0  7   0   0   0  0  0
 135  2  0   0   0   0  0  0
 136  0  7   0   0   0  0  0
 137  2  0   0   0   0  0  0
 138  0  7   0   0   0  0  0
 139  2  0   0   0   0  0  0
 140  0  7   0   0   0  0  0
 141  2  0   0   0   0  0  0
 142  0  7   0   0   0  0  0
 143  2  0   0   0   0  0  0
 144  0  7   0   0   0  0  0
 145  2  0   0   0   0  0  0
 146  0  7   0   0   0  0  0
 147  2  0   0   0   0  0  0
 148  0  7   0   0   0  0  0
 149  2  0   0   0   0  0  0
 150  0  7   0   0   0  0  0
 151  2  0   0   0   0  0  0
 152  0  7   0   0   0  0  0
 153  0  0   1   1   1  0  0
 154  0  0   0   0   0  1  0
 155  1  0   0   0   0  0  0
 156  0  8   0   0   0  0  0
 157  2  0   0   0   0  0  0
 158  0  8   0   0   0  0  0
 159  2  0   0   0   0  0  0
 160  0  8   0   0   0  0  0
 161  2  0   0   0   0  0  0
 162  0  8   0   0   0  0  0
 163  2  0   0   0   0  0  0
 164  0  8   0   0   0  0  0
 165  2  0   0   0   0  0  0
 166  0  8   0   0   0  0  0
 167  2  0   0   0   0  0  0
 168  0  8   0   0   0  0  0
 169  2  0   0   0   0  0  0
 170  0  8   0   0   0  0  0
 171  2  0   0   0   0  0  0
 172  0  8   0   0   0  0  0
 173  2  0   0   0   0  0  0
 174  0  8   0   0   0  0  0
 175  0  0   1   1   1  0  0
 176  0  0   0   0   0  1  0
 177  1  0   0   0   0  0  0
 178  0  9   0   0   0  0  0
 179  2  0   0   0   0  0  0
 180  0  9   0   0   0  0  0
 181  2  0   0   0   0  0  0
 182  0  9   0   0   0  0  0
 183  2  0   0   0   0  0  0
 184  0  9   0   0   0  0  0
 185  2  0   0   0   0  0  0
 186  0  9   0   0   0  0  0
 187  2  0   0   0   0  0  0
 188  0  9   0   0   0  0  0
 189  2  0   0   0   0  0  0
 190  0  9   0   0   0  0  0
 191  2  0   0   0   0  0  0
 192  0  9   0   0   0  0  0
 193  2  0   0   0   0  0  0
 194  0  9   0   0   0  0  0
 195  2  0   0   0   0  0  0
 196  0  9   0   0   0  0  0
 197  0  0   1   1   1  0  0
 198  0  0   0   0   0  1  0
 199  1  0   0   0   0  0  0
 200  0 10   0   0   0  0  0
 201  2  0   0   0   0  0  0
 202  0 10   0   0   0  0  0
 203  2  0   0   0   0  0  0
 204  0 10   0   0   0  0  0
 205  2  0   0   0   0  0  0
 206  0 10   0   0   0  0  0
 207  2  0   0   0   0  0  0
 208  0 10   0   0   0  0  0
 209  2  0   0   0   0  0  0
 210  0 10   0   0   0  0  0
 211  2  0   0   0   0  0  0
 212  0 10   0   0   0  0  0
 213  2  0   0   0   0  0  0
 214  0 10   0   0   0  0  0
 215  2  0   0   0   0  0  0
 216  0 10   0   0   0  0  0
 217  2  0   0   0   0  0  0
 218  0 10   0   0   0  0  0
 219  0  0   1   1   1  0  0
 220  0  0   0   0   0  1  0
 221  1  0   0   0   0  0  0
 222  0 11   0   0   0  0  0
 223  2  0   0   0   0  0  0
 224  0 11   0   0   0  0  0
 225  2  0   0   0   0  0  0
 226  0 11   0   0   0  0  0
 227  2  0   0   0   0  0  0
 228  0 11   0   0   0  0  0
 229  2  0   0   0   0  0  0
 230  0 11   0   0   0  0  0
 231  2  0   0   0   0  0  0
 232  0 11   0   0   0  0  0
 233  2  0   0   0   0  0  0
 234  0 11   0   0   0  0  0
 235  2  0   0   0   0  0  0
 236  0 11   0   0   0  0  0
 237  2  0   0   0   0  0  0
 238  0 11   0   0   0  0  0
 239  2  0   0   0   0  0  0
 240  0 11   0   0   0  0  0
 241  0  0   1   1   1  0  0
 242  0  0   0   0   0  1  0
 243  1  0   0   0   0  0  0
 244  0 12   0   0   0  0  0
 245  2  0   0   0   0  0  0
 246  0 12   0   0   0  0  0
 247  2  0   0   0   0  0  0
 248  0 12   0   0   0  0  0
 249  2  0   0   0   0  0  0
 250  0 12   0   0   0  0  0
 251  2  0   0   0   0  0  0
 252  0 12   0   0   0  0  0
 253  2  0   0   0   0  0  0
 254  0 12   0   0   0  0  0
 255  2  0   0   0   0  0  0
 256  0 12   0   0   0  0  0
 257  2  0   0   0   0  0  0
 258  0 12   0   0   0  0  0
 259  2  0   0   0   0  0  0
 260  0 12   0   0   0  0  0
 261  2  0   0   0   0  0  0
 262  0 12   0   0   0  0  0
 263  0  0   1   1   1  0  0
 264  0  0   0   0   0  1  0
 265  1  0   0   0   0  0  0
 266  0 13   0   0   0  0  0
 267  2  0   0   0   0  0  0
 268  0 13   0   0   0  0  0
 269  2  0   0   0   0  0  0
 270  0 13   0   0   0  0  0
 271  2  0   0   0   0  0  0
 272  0 13   0   0   0  0  0
 273  2  0   0   0   0  0  0
 274  0 13   0   0   0  0  0
 275  2  0   0   0   0  0  0
 276  0 13   0   0   0  0  0
 277  2  0   0   0   0  0  0
 278  0 13   0   0   0  0  0
 279  2  0   0   0   0  0  0
 280  0 13   0   0   0  0  0
 281  2  0   0   0   0  0  0
 282  0 13   0   0   0  0  0
 283  2  0   0   0   0  0  0
 284  0 13   0   0   0  0  0
 285  0  0   1   1   1  0  0
 286  0  0   0   0   0  1  0
 287  1  0   0   0   0  0  0
 288  0 14   0   0   0  0  0
 289  2  0   0   0   0  0  0
 290  0 14   0   0   0  0  0
 291  2  0   0   0   0  0  0
 292  0 14   0   0   0  0  0
 293  2  0   0   0   0  0  0
 294  0 14   0   0   0  0  0
 295  2  0   0   0   0  0  0
 296  0 14   0   0   0  0  0
 297  2  0   0   0   0  0  0
 298  0 14   0   0   0  0  0
 299  2  0   0   0   0  0  0
 300  0 14   0   0   0  0  0
 301  2  0   0   0   0  0  0
 302  0 14   0   0   0  0  0
 303  2  0   0   0   0  0  0
 304  0 14   0   0   0  0  0
 305  2  0   0   0   0  0  0
 306  0 14   0   0   0  0  0
 307  0  0   1   1   1  0  0
 308  0  0   0   0   0  1  0
 309  1  0   0   0   0  0  0
 310  0 15   0   0   0  0  0
 311  2  0   0   0   0  0  0
 312  0 15   0   0   0  0  0
 313  2  0   0   0   0  0  0
 314  0 15   0   0   0  0  0
 315  2  0   0   0   0  0  0
 316  0 15   0   0   0  0  0
 317  2  0   0   0   0  0  0
 318  0 15   0   0   0  0  0
 319  2  0   0   0   0  0  0
 320  0 15   0   0   0  0  0
 321  2  0   0   0   0  0  0
 322  0 15   0   0   0  0  0
 323  2  0   0   0   0  0  0
[RF]
1      250.392 1 2 100 -1490.17 0
2      250.392 1 2 100 -1429.35 0
3      250.392 1 2 100 -1368.53 0
4      250.392 1 2 100 -1307.7 0
5      250.392 1 2 100 -1246.88 0
6      250.392 1 2 100 -1186.06 0
7      250.392 1 2 100 -1125.23 0
8      250.392 1 2 100 -1064.41 0
9      250.392 1 2 100 -1003.59 0
10      250.392 1 2 100 -942.763 0
11      250.392 1 2 100 -881.94 0
12      250.392 1 2 100 -821.116 0
13      250.392 1 2 100 -760.293 0
14      250.392 1 2 100 -699.469 0
15      250.392 1 2 100 -638.646 0
16      250.392 1 2 100 -577.823 0
17      250.392 1 2 100 -516.999 0
18      250.392 1 2 100 -456.176 0
19      250.392 1 2 100 -395.352 0
20      250.392 1 2 100 -334.529 0
21      250.392 1 2 100 -273.705 0
22      250.392 1 2 100 -212.882 0
23      250.392 1 2 100 -152.059 0
24      250.392 1 2 100 -91.2351 0
25      250.392 1 2 100 -30.4117 0
26      250.392 1 2 100 30.4117 0
27      250.392 1 2 100 91.2351 0
28      250.392 1 2 100 152.059 0
29      250.392 1 2 100 212.882 0
30      250.392 1 2 100 273.705 0
31      250.392 1 2 100 334.529 0
32      250.392 1 2 100 395.352 0
33      250.392 1 2 100 456.176 0
34      250.392 1 2 100 516.999 0
35      250.392 1 2 100 577.823 0
36      250.392 1 2 100 638.646 0
37      250.392 1 2 100 699.469 0
38      250.392 1 2 100 760.293 0
39      250.392 1 2 100 821.116 0
40      250.392 1 2 100 881.94 0
41      250.392 1 2 100 942.763 0
42      250.392 1 2 100 1003.59 0
43      250.392 1 2 100 1064.41 0
44      250.392 1 2 100 1125.23 0
45      250.392 1 2 100 1186.06 0
46      250.392 1 2 100 1246.88 0
47      250.392 1 2 100 1307.7 0
48      250.392 1 2 100 1368.53 0
49      250.392 1 2 100 1429.35 0
50      250.392 1 2 100 1490.17 0

# Format of trapezoid gradients:
# id amplitude rise flat fall delay
# ..      Hz/m   us   us   us    us
[TRAP]
 1  1.36243e+06 250 4000 250   0

# Format of ADC events:
# id num dwell delay freq phase
# ..  ..    ns    us   Hz   rad
[ADC]
1 1 1000000 0 0 0

# Format of delays:
# id delay (us)
[DELAYS]
1 2000000
2 200

# Sequence Shapes
[SHAPES]

shape_id 1
num_samples 100030
0.0008517
2e-07
3e-07
2e-07
2e-07
0
3e-07
2e-07
3e-07
2e-07
2e-07
0
3e-07
2e-07
3e-07
2e-07
3e-07
2e-07
2e-07
0
3e-07
2e-07
3e-07
2e-07
2e-07
0
3e-07
2e-07
3e-07
2e-07
3e-07
2e-07
2e-07
0
3e-07
2e-07
3e-07
2e-07
3e-07
2e-07
2e-07
0
3e-07
2e-07
3e-07
2e-07
3e-07
2e-07
2e-07
0
3e-07
2e-07
3e-07
2e-07
3e-07
2e-07
3e-07
2e-07
2e-07
0
3e-07
2e-07
3e-07
2e-07
3e-07
2e-07
3e-07
2e-07
2e-07
0
3e-07
2e-07
3e-07
2e-07
3e-07
2e-07
3e-07
2e-07
2e-07
0
3e-07
2e-07
3e-07
2e-07
3e-07
2e-07
3e-07
2e-07
3e-07
2e-07
2e-07
0
3e-07
2e-07
3e-07
2e-07
3e-07
2e-07
3e-07
2e-07
3e-07
2e-07
3e-07
2e-07
2e-07
0
3e-07
2e-07
3e-07
2e-07
3e-07
2e-07
3e-07
2e-07
3e-07
2e-07
3e-07
2e-07
3e-07
2e-07
3e-07
2e-07
3e-07
2e-07
2e-07
0
3e-07
2e-07
3e-07
2e-07
3e-07
2e-07
3e-07
2e-07
3e-07
2e-07
3e-07
2e-07
3e-07
2e-07
3e-07
2e-07
3e-07
2e-07
3e-07
2e-07
3e-07
2e-07
3e-07
2e-07
3e-07
2e-07
3e-07
2e-07
3e-07
2e-07
3e-07
2e-07
3e-07
2e-07
3e-07
2e-07
3e-07
2e-07
3e-07
2e-07
3e-07
2e-07
3e-07
2e-07
3e-07
2e-07
3e-07
2e-07
3e-07
2e-07
3e-07
2e-07
3e-07
2e-07
3e-07
2e-07
3e-07
2e-07
3e-07
2e-07
3e-07
2e-07
3e-07
3e-07
0
2e-07
3e-07
2e-07
3e-07
2e-07
3e-07
2e-07
3e-07
2e-07
3e-07
2e-07
3e-07
2e-07
3e-07
2e-07
3e-07
3e-07
0
2e-07
3e-07
2e-07
3e-07
2e-07
3e-07
2e-07
3e-07
2e-07
3e-07
2e-07
3e-07
2e-07
3e-07
3e-07
0
2e-07
3e-07
2e-07
3e-07
2e-07
3e-07
2e-07
3e-07
2e-07
3e-07
3e-07
0
2e-07
3e-07
2e-07
3e-07
2e-07
3e-07
2e-07
3e-07
3e-07
0
2e-07
3e-07
2e-07
3e-07
2e-07
3e-07
2e-07
3e-07
3e-07
0
2e-07
3e-07
2e-07
3e-07
2e-07
3e-07
3e-07
0
2e-07
3e-07
2e-07
3e-07
2e-07
3e-07
3e-07
0
2e-07
3e-07
2e-07
3e-07
2e-07
3e-07
3e-07
0
2e-07
3e-07
2e-07
3e-07
2e-07
3e-07
3e-07
0
2e-07
3e-07
2e-07
3e-07
3e-07
0
2e-07
3e-07
2e-07
3e-07
2e-07
3e-07
3e-07
0
2e-07
3e-07
2e-07
3e-07
3e-07
0
2e-07
3e-07
2e-07
3e-07
3e-07
0
2e-07
3e-07
2e-07
3e-07
3e-07
0
2e-07
3e-07
2e-07
3e-07
3e-07
0
2e-07
3e-07
2e-07
3e-07
3e-07
0
2e-07
3e-07
2e-07
3e-07
3e-07
0
2e-07
3e-07
2e-07
3e-07
3e-07
0
2e-07
3e-07
3e-07
0
2e-07
3e-07
2e-07
3e-07
3e-07
0
2e-07
3e-07
2e-07
3e-07
3e-07
0
2e-07
3e-07
3e-07
0
2e-07
3e-07
2e-07
3e-07
3e-07
0
2e-07
3e-07
3e-07
0
2e-07
3e-07
2e-07
3e-07
3e-07
0
2e-07
3e-07
3e-07
0
2e-07
3e-07
3e-07
0
2e-07
3e-07
2e-07
3e-07
3e-07
0
2e-07
3e-07
3e-07
0
2e-07
3e-07
3e-07
0
2e-07
3e-07
3e-07
0
2e-07
3e-07
2e-07
3e-07
3e-07
0
2e-07
3e-07
3e-07
0
2e-07
3e-07
3e-07
0
2e-07
3e-07
3e-07
0
2e-07
3e-07
3e-07
0
2e-07
3e-07
3e-07
0
2e-07
3e-07
3e-07
0
2e-07
3e-07
3e-07
0
2e-07
3e-07
3e-07
0
2e-07
3e-07
3e-07
0
2e-07
3e-07
3e-07
0
2e-07
3e-07
3e-07
0
2e-07
3e-07
3e-07
0
2e-07
3e-07
3e-07
0
2e-07
3e-07
3e-07
0
2e-07
3e-07
3e-07
0
2e-07
3e-07
3e-07
0
2e-07
3e-07
3e-07
1
2e-07
3e-07
3e-07
0
2e-07
3e-07
3e-07
0
2e-07
3e-07
3e-07
0
2e-07
3e-07
3e-07
0
2e-07
3e-07
3e-07
1
2e-07
3e-07
3e-07
0
2e-07
3e-07
3e-07
0
2e-07
3e-07
3e-07
1
2e-07
3e-07
3e-07
0
2e-07
3e-07
3e-07
1
2e-07
3e-07
3e-07
0
2e-07
3e-07
3e-07
1
2e-07
3e-07
3e-07
0
2e-07
3e-07
3e-07
1
2e-07
3e-07
3e-07
0
2e-07
3e-07
3e-07
1
2e-07
3e-07
3e-07
0
2e-07
3e-07
3e-07
1
2e-07
3e-07
3e-07
1
2e-07
3e-07
3e-07
1
2e-07
3e-07
3e-07
0
2e-07
3e-07
3e-07
1
2e-07
3e-07
3e-07
1
2e-07
3e-07
3e-07
1
2e-07
3e-07
3e-07
1
2e-07
3e-07
3e-07
1
2e-07
3e-07
3e-07
1
2e-07
3e-07
3e-07
1
2e-07
3e-07
3e-07
1
2e-07
3e-07
3e-07
1
2e-07
3e-07
3e-07
2
2e-07
3e-07
3e-07
1
2e-07
3e-07
3e-07
1
2e-07
3e-07
3e-07
2
2e-07
3e-07
3e-07
1
2e-07
3e-07
3e-07
2
2e-07
3e-07
3e-07
1
2e-07
3e-07
3e-07
2
2e-07
3e-07
3e-07
2
2e-07
3e-07
3e-07
2
2e-07
3e-07
3e-07
2
2e-07
3e-07
3e-07
2
2e-07
3e-07
3e-07
2
2e-07
3e-07
3e-07
2
2e-07
3e-07
3e-07
2
2e-07
3e-07
3e-07
3
2e-07
3e-07
3e-07
2
2e-07
3e-07
3e-07
3
2e-07
3e-07
3e-07
3
2e-07
3e-07
3e-07
3
2e-07
3e-07
3e-07
3
2e-07
3e-07
3e-07
4
2e-07
3e-07
3e-07
3
2e-07
3e-07
3e-07
4
2e-07
3e-07
3e-07
4
2e-07
3e-07
3e-07
4
2e-07
3e-07
3e-07
5
2e-07
3e-07
3e-07
5
2e-07
3e-07
3e-07
5
2e-07
3e-07
3e-07
6
2e-07
3e-07
3e-07
6
2e-07
3e-07
3e-07
7
2e-07
3e-07
3e-07
8
2e-07
3e-07
3e-07
9
2e-07
3e-07
3e-07
10
2e-07
3e-07
3e-07
13
2e-07
3e-07
3e-07
18
2e-07
3e-07
3e-07
34
2e-07
3e-07
3e-07
30
4e-07
3e-07
3e-07
34
4e-07
3e-07
3e-07
17
4e-07
3e-07
3e-07
13
4e-07
3e-07
3e-07
10
4e-07
3e-07
3e-07
9
4e-07
3e-07
3e-07
7
4e-07
3e-07
3e-07
7
4e-07
3e-07
3e-07
6
4e-07
3e-07
3e-07
6
4e-07
3e-07
3e-07
5
4e-07
3e-07
3e-07
5
4e-07
3e-07
3e-07
4
4e-07
3e-07
3e-07
4
4e-07
3e-07
3e-07
4
4e-07
3e-07
3e-07
4
4e-07
3e-07
3e-07
3
4e-07
3e-07
3e-07
3
4e-07
3e-07
3e-07
3
4e-07
3e-07
3e-07
3
4e-07
3e-07
3e-07
2
4e-07
3e-07
3e-07
3
4e-07
3e-07
3e-07
2
4e-07
3e-07
3e-07
3
4e-07
3e-07
3e-07
2
4e-07
3e-07
3e-07
2
4e-07
3e-07
3e-07
2
4e-07
3e-07
3e-07
1
4e-07
3e-07
3e-07
2
4e-07
3e-07
3e-07
2
4e-07
3e-07
3e-07
1
4e-07
3e-07
3e-07
2
4e-07
3e-07
3e-07
1
4e-07
3e-07
3e-07
2
4e-07
3e-07
3e-07
1
4e-07
3e-07
3e-07
1
4e-07
3e-07
3e-07
1
4e-07
3e-07
3e-07
2
4e-07
3e-07
3e-07
1
4e-07
3e-07
3e-07
1
4e-07
3e-07
3e-07
1
4e-07
3e-07
3e-07
0
4e-07
3e-07
3e-07
1
4e-07
3e-07
3e-07
1
4e-07
3e-07
3e-07
1
4e-07
3e-07
3e-07
1
4e-07
3e-07
3e-07
0
4e-07
3e-07
3e-07
1
4e-07
3e-07
3e-07
0
4e-07
3e-07
3e-07
1
4e-07
3e-07
3e-07
0
4e-07
3e-07
3e-07
1
4e-07
3e-07
3e-07
0
4e-07
3e-07
3e-07
1
4e-07
3e-07
3e-07
0
4e-07
3e-07
3e-07
1
4e-07
3e-07
3e-07
0
4e-07
3e-07
3e-07
0
4e-07
3e-07
3e-07
0
4e-07
3e-07
3e-07
1
4e-07
3e-07
3e-07
0
4e-07
3e-07
3e-07
0
4e-07
3e-07
3e-07
0
4e-07
3e-07
3e-07
0
4e-07
3e-07
3e-07
0
4e-07
3e-07
3e-07
0
4e-07
3e-07
3e-07
0
4e-07
3e-07
3e-07
0
4e-07
3e-07
3e-07
0
4e-07
3e-07
3e-07
0
4e-07
3e-07
3e-07
0
4e-07
3e-07
3e-07
0
4e-07
3e-07
3e-07
0
4e-07
3e-07
3e-07
0
4e-07
3e-07
3e-07
0
4e-07
3e-07
3e-07
0
4e-07
3e-07
3e-07
0
4e-07
3e-07
4e-07
3e-07
3e-07
0
4e-07
3e-07
3e-07
0
4e-07
3e-07
3e-07
0
4e-07
3e-07
4e-07
3e-07
3e-07
0
4e-07
3e-07
3e-07
0
4e-07
3e-07
3e-07
0
4e-07
3e-07
4e-07
3e-07
3e-07
0
4e-07
3e-07
3e-07
0
4e-07
3e-07
4e-07
3e-07
3e-07
0
4e-07
3e-07
4e-07
3e-07
3e-07
0
4e-07
3e-07
4e-07
3e-07
3e-07
0
4e-07
3e-07
3e-07
0
4e-07
3e-07
4e-07
3e-07
3e-07
0
4e-07
3e-07
4e-07
3e-07
3e-07
0
4e-07
3e-07
4e-07
3e-07
4e-07
3e-07
3e-07
0
4e-07
3e-07
4e-07
3e-07
3e-07
0
4e-07
3e-07
4e-07
3e-07
3e-07
0
4e-07
3e-07
4e-07
3e-07
4e-07
3e-07
3e-07
0
4e-07
3e-07
4e-07
3e-07
4e-07
3e-07
3e-07
0
4e-07
3e-07
4e-07
3e-07
4e-07
3e-07
3e-07
0
4e-07
3e-07
4e-07
3e-07
4e-07
3e-07
4e-07
3e-07
3e-07
0
4e-07
3e-07
4e-07
3e-07
4e-07
3e-07
4e-07
3e-07
4e-07
3e-07
3e-07
0
4e-07
3e-07
4e-07
3e-07
4e-07
3e-07
4e-07
3e-07
4e-07
3e-07
3e-07
0
4e-07
3e-07
4e-07
3e-07
4e-07
3e-07
4e-07
3e-07
4e-07
3e-07
4e-07
3e-07
4e-07
3e-07
4e-07
3e-07
4e-07
3e-07
3e-07
0
4e-07
3e-07
4e-07
3e-07
4e-07
3e-07
4e-07
3e-07
4e-07
3e-07
4e-07
3e-07
4e-07
3e-07
4e-07
3e-07
4e-07
3e-07
4e-07
3e-07
4e-07
3e-07
4e-07
3e-07
4e-07
3e-07
4e-07
3e-07
4e-07
3e-07
4e-07
3e-07
4e-07
3e-07
4e-07
3e-07
4e-07
3e-07
4e-07
3e-07
4e-07
4e-07
0
3e-07
4e-07
3e-07
4e-07
3e-07
4e-07
3e-07
4e-07
3e-07
4e-07
3e-07
4e-07
3e-07
4e-07
3e-07
4e-07
3e-07
4e-07
4e-07
0
3e-07
4e-07
3e-07
4e-07
3e-07
4e-07
3e-07
4e-07
3e-07
4e-07
3e-07
4e-07
4e-07
0
3e-07
4e-07
3e-07
4e-07
3e-07
4e-07
3e-07
4e-07
4e-07
0
3e-07
4e-07
3e-07
4e-07
3e-07
4e-07
3e-07
4e-07
4e-07
0
3e-07
4e-07
3e-07
4e-07
3e-07
4e-07
4e-07
0
3e-07
4e-07
3e-07
4e-07
3e-07
4e-07
4e-07
0
3e-07
4e-07
3e-07
4e-07
3e-07
4e-07
4e-07
0
3e-07
4e-07
3e-07
4e-07
4e-07
0
3e-07
4e-07
3e-07
4e-07
4e-07
0
3e-07
4e-07
3e-07
4e-07
3e-07
4e-07
4e-07
0
3e-07
4e-07
3e-07
4e-07
4e-07
0
3e-07
4e-07
3e-07
4e-07
4e-07
0
3e-07
4e-07
4e-07
0
3e-07
4e-07
3e-07
4e-07
4e-07
0
3e-07
4e-07
3e-07
4e-07
4e-07
0
3e-07
4e-07
4e-07
0
3e-07
4e-07
3e-07
4e-07
4e-07
0
3e-07
4e-07
4e-07
0
3e-07
4e-07
3e-07
4e-07
4e-07
0
3e-07
4e-07
4e-07
0
3e-07
4e-07
4e-07
0
3e-07
4e-07
3e-07
4e-07
4e-07
0
3e-07
4e-07
4e-07
0
3e-07
4e-07
4e-07
0
3e-07
4e-07
4e-07
0
3e-07
4e-07
4e-07
0
3e-07
4e-07
4e-07
0
3e-07
4e-07
3e-07
4e-07
4e-07
0
3e-07
4e-07
4e-07
0
3e-07
4e-07
4e-07
0
3e-07
4e-07
4e-07
0
3e-07
4e-07
4e-07
1
3e-07
4e-07
4e-07
0
3e-07
4e-07
4e-07
0
3e-07
4e-07
4e-07
0
3e-07
4e-07
4e-07
0
3e-07
4e-07
4e-07
0
3e-07
4e-07
4e-07
1
3e-07
4e-07
4e-07
0
3e-07
4e-07
4e-07
0
3e-07
4e-07
4e-07
0
3e-07
4e-07
4e-07
1
3e-07
4e-07
4e-07
0
3e-07
4e-07
4e-07
1
3e-07
4e-07
4e-07
0
3e-07
4e-07
4e-07
1
3e-07
4e-07
4e-07
0
3e-07
4e-07
4e-07
1
3e-07
4e-07
4e-07
1
3e-07
4e-07
4e-07
0
3e-07
4e-07
4e-07
1
3e-07
4e-07
4e-07
1
3e-07
4e-07
4e-07
1
3e-07
4e-07
4e-07
1
3e-07
4e-07
4e-07
1
3e-07
4e-07
4e-07
1
3e-07
4e-07
4e-07
1
3e-07
4e-07
4e-07
1
3e-07
4e-07
4e-07
1
3e-07
4e-07
4e-07
1
3e-07
4e-07
4e-07
2
3e-07
4e-07
4e-07
1
3e-07
4e-07
4e-07
2
3e-07
4e-07
4e-07
1
3e-07
4e-07
4e-07
2
3e-07
4e-07
4e-07
2
3e-07
4e-07
4e-07
2
3e-07
4e-07
4e-07
2
3e-07
4e-07
4e-07
2
3e-07
4e-07
4e-07
3
3e-07
4e-07
4e-07
2
3e-07
4e-07
4e-07
3
3e-07
4e-07
4e-07
3
3e-07
4e-07
4e-07
3
3e-07
4e-07
4e-07
3
3e-07
4e-07
4e-07
4
3e-07
4e-07
4e-07
3
3e-07
4e-07
4e-07
5
3e-07
4e-07
4e-07
4
3e-07
4e-07
4e-07
5
3e-07
4e-07
4e-07
6
3e-07
4e-07
4e-07
6
3e-07
4e-07
4e-07
7
3e-07
4e-07
4e-07
9
3e-07
4e-07
4e-07
10
3e-07
4e-07
4e-07
13
3e-07
4e-07
4e-07
22
3e-07
4e-07
4e-07
53
5e-07
4e-07
4e-07
22
5e-07
4e-07
4e-07
13
5e-07
4e-07
4e-07
10
5e-07
4e-07
4e-07
8
5e-07
4e-07
4e-07
8
5e-07
4e-07
4e-07
6
5e-07
4e-07
4e-07
5
5e-07
4e-07
4e-07
5
5e-07
4e-07
4e-07
4
5e-07
4e-07
4e-07
4
5e-07
4e-07
4e-07
4
5e-07
4e-07
4e-07
3
5e-07
4e-07
4e-07
4
5e-07
4e-07
4e-07
3
5e-07
4e-07
4e-07
2
5e-07
4e-07
4e-07
3
5e-07
4e-07
4e-07
2
5e-07
4e-07
4e-07
2
5e-07
4e-07
4e-07
2
5e-07
4e-07
4e-07
2
5e-07
4e-07
4e-07
2
5e-07
4e-07
4e-07
2
5e-07
4e-07
4e-07
1
5e-07
4e-07
4e-07
2
5e-07
4e-07
4e-07
1
5e-07
4e-07
4e-07
2
5e-07
4e-07
4e-07
1
5e-07
4e-07
4e-07
1
5e-07
4e-07
4e-07
1
5e-07
4e-07
4e-07
1
5e-07
4e-07
4e-07
1
5e-07
4e-07
4e-07
1
5e-07
4e-07
4e-07
1
5e-07
4e-07
4e-07
1
5e-07
4e-07
4e-07
0
5e-07
4e-07
4e-07
1
5e-07
4e-07
4e-07
0
5e-07
4e-07
4e-07
1
5e-07
4e-07
4e-07
1
5e-07
4e-07
4e-07
0
5e-07
4e-07
4e-07
0
5e-07
4e-07
4e-07
1
5e-07
4e-07
4e-07
0
5e-07
4e-07
4e-07
0
5e-07
4e-07
4e-07
1
5e-07
4e-07
4e-07
0
5e-07
4e-07
4e-07
0
5e-07
4e-07
4e-07
0
5e-07
4e-07
4e-07
0
5e-07
4e-07
4e-07
0
5e-07
4e-07
4e-07
0
5e-07
4e-07
4e-07
1
5e-07
4e-07
4e-07
0
5e-07
4e-07
5e-07
4e-07
4e-07
0
5e-07
4e-07
4e-07
0
5e-07
4e-07
4e-07
0
5e-07
4e-07
4e-07
0
5e-07
4e-07
4e-07
0
5e-07
4e-07
4e-07
0
5e-07
4e-07
4e-07
0
5e-07
4e-07
5e-07
4e-07
4e-07
0
5e-07
4e-07
4e-07
0
5e-07
4e-07
5e-07
4e-07
4e-07
0
5e-07
4e-07
4e-07
0
5e-07
4e-07
5e-07
4e-07
4e-07
0
5e-07
4e-07
4e-07
0
5e-07
4e-07
5e-07
4e-07
4e-07
0
5e-07
4e-07
5e-07
4e-07
4e-07
0
5e-07
4e-07
5e-07
4e-07
4e-07
0
5e-07
4e-07
5e-07
4e-07
4e-07
0
5e-07
4e-07
5e-07
4e-07
4e-07
0
5e-07
4e-07
5e-07
4e-07
5e-07
4e-07
4e-07
0
5e-07
4e-07
5e-07
4e-07
4e-07
0
5e-07
4e-07
5e-07
4e-07
5e-07
4e-07
5e-07
4e-07
4e-07
0
5e-07
4e-07
5e-07
4e-07
5e-07
4e-07
4e-07
0
5e-07
4e-07
5e-07
4e-07
5e-07
4e-07
5e-07
4e-07
5e-07
4e-07
4e-07
0
5e-07
4e-07
5e-07
4e-07
5e-07
4e-07
5e-07
4e-07
5e-07
4e-07
5e-07
4e-07
4e-07
0
5e-07
4e-07
5e-07
4e-07
5e-07
4e-07
5e-07
4e-07
5e-07
4e-07
5e-07
4e-07
5e-07
4e-07
5e-07
4e-07
5e-07
4e-07
5e-07
4e-07
5e-07
4e-07
5e-07
4e-07
5e-07
4e-07
5e-07
4e-07
5e-07
4e-07
5e-07
4e-07
5e-07
4e-07
5e-07
4e-07
5e-07
4e-07
5e-07
4e-07
5e-07
4e-07
5e-07
4e-07
5e-07
4e-07
5e-07
4e-07
5e-07
4e-07
5e-07
4e-07
5e-07
5e-07
0
4e-07
5e-07
4e-07
5e-07
4e-07
5e-07
4e-07
5e-07
4e-07
5e-07
4e-07
5e-07
5e-07
0
4e-07
5e-07
4e-07
5e-07
4e-07
5e-07
4e-07
5e-07
4e-07
5e-07
5e-07
0
4e-07
5e-07
4e-07
5e-07
4e-07
5e-07
5e-07
0
4e-07
5e-07
4e-07
5e-07
4e-07
5e-07
5e-07
0
4e-07
5e-07
4e-07
5e-07
4e-07
5e-07
5e-07
0
4e-07
5e-07
4e-07
5e-07
4e-07
5e-07
5e-07
0
4e-07
5e-07
4e-07
5e-07
5e-07
0
4e-07
5e-07
4e-07
5e-07
5e-07
0
4e-07
5e-07
4e-07
5e-07
5e-07
0
4e-07
5e-07
4e-07
5e-07
5e-07
0
4e-07
5e-07
5e-07
0
4e-07
5e-07
4e-07
5e-07
5e-07
0
4e-07
5e-07
4e-07
5e-07
5e-07
0
4e-07
5e-07
5e-07
0
4e-07
5e-07
5e-07
0
4e-07
5e-07
4e-07
5e-07
5e-07
0
4e-07
5e-07
5e-07
0
4e-07
5e-07
5e-07
0
4e-07
5e-07
5e-07
0
4e-07
5e-07
4e-07
5e-07
5e-07
0
4e-07
5e-07
5e-07
0
4e-07
5e-07
5e-07
0
4e-07
5e-07
5e-07
0
4e-07
5e-07
5e-07
0
4e-07
5e-07
5e-07
0
4e-07
5e-07
5e-07
0
4e-07
5e-07
5e-07
0
4e-07
5e-07
5e-07
1
4e-07
5e-07
5e-07
0
4e-07
5e-07
5e-07
0
4e-07
5e-07
5e-07
0
4e-07
5e-07
5e-07
1
4e-07
5e-07
5e-07
0
4e-07
5e-07
5e-07
0
4e-07
5e-07
5e-07
1
4e-07
5e-07
5e-07
0
4e-07
5e-07
5e-07
1
4e-07
5e-07
5e-07
1
4e-07
5e-07
5e-07
0
4e-07
5e-07
5e-07
1
4e-07
5e-07
5e-07
1
4e-07
5e-07
5e-07
1
4e-07
5e-07
5e-07
0
4e-07
5e-07
5e-07
1
4e-07
5e-07
5e-07
1
4e-07
5e-07
5e-07
2
4e-07
5e-07
5e-07
1
4e-07
5e-07
5e-07
1
4e-07
5e-07
5e-07
2
4e-07
5e-07
5e-07
1
4e-07
5e-07
5e-07
2
4e-07
5e-07
5e-07
1
4e-07
5e-07
5e-07
2
4e-07
5e-07
5e-07
2
4e-07
5e-07
5e-07
3
4e-07
5e-07
5e-07
2
4e-07
5e-07
5e-07
3
4e-07
5e-07
5e-07
2
4e-07
5e-07
5e-07
3
4e-07
5e-07
5e-07
4
4e-07
5e-07
5e-07
3
4e-07
5e-07
5e-07
4
4e-07
5e-07
5e-07
5
4e-07
5e-07
5e-07
5
4e-07
5e-07
5e-07
5
4e-07
5e-07
5e-07
7
4e-07
5e-07
5e-07
8
4e-07
5e-07
5e-07
10
4e-07
5e-07
5e-07
13
4e-07
5e-07
5e-07
34
4e-07
5e-07
5e-07
5
6e-07
5e-07
5e-07
33
6e-07
5e-07
5e-07
14
6e-07
5e-07
5e-07
10
6e-07
5e-07
5e-07
8
6e-07
5e-07
5e-07
6
6e-07
5e-07
5e-07
6
6e-07
5e-07
5e-07
4
6e-07
5e-07
5e-07
5
6e-07
5e-07
5e-07
4
6e-07
5e-07
5e-07
3
6e-07
5e-07
5e-07
3
6e-07
5e-07
5e-07
3
6e-07
5e-07
5e-07
3
6e-07
5e-07
5e-07
2
6e-07
5e-07
5e-07
3
6e-07
5e-07
5e-07
2
6e-07
5e-07
5e-07
1
6e-07
5e-07
5e-07
2
6e-07
5e-07
5e-07
2
6e-07
5e-07
5e-07
1
6e-07
5e-07
5e-07
2
6e-07
5e-07
5e-07
1
6e-07
5e-07
5e-07
1
6e-07
5e-07
5e-07
1
6e-07
5e-07
5e-07
1
6e-07
5e-07
5e-07
1
6e-07
5e-07
5e-07
1
6e-07
5e-07
5e-07
1
6e-07
5e-07
5e-07
1
6e-07
5e-07
5e-07
0
6e-07
5e-07
5e-07
1
6e-07
5e-07
5e-07
1
6e-07
5e-07
5e-07
0
6e-07
5e-07
5e-07
0
6e-07
5e-07
5e-07
1
6e-07
5e-07
5e-07
0
6e-07
5e-07
5e-07
0
6e-07
5e-07
5e-07
1
6e-07
5e-07
5e-07
0
6e-07
5e-07
5e-07
0
6e-07
5e-07
5e-07
0
6e-07
5e-07
5e-07
0
6e-07
5e-07
5e-07
0
6e-07
5e-07
5e-07
0
6e-07
5e-07
5e-07
0
6e-07
5e-07
5e-07
0
6e-07
5e-07
5e-07
0
6e-07
5e-07
5e-07
0
6e-07
5e-07
5e-07
0
6e-07
5e-07
5e-07
0
6e-07
5e-07
6e-07
5e-07
5e-07
0
6e-07
5e-07
5e-07
0
6e-07
5e-07
5e-07
0
6e-07
5e-07
6e-07
5e-07
5e-07
0
6e-07
5e-07
5e-07
0
6e-07
5e-07
6e-07
5e-07
5e-07
0
6e-07
5e-07
6e-07
5e-07
5e-07
0
6e-07
5e-07
6e-07
5e-07
5e-07
0
6e-07
5e-07
6e-07
5e-07
5e-07
0
6e-07
5e-07
6e-07
5e-07
5e-07
0
6e-07
5e-07
6e-07
5e-07
6e-07
5e-07
5e-07
0
6e-07
5e-07
6e-07
5e-07
6e-07
5e-07
5e-07
0
6e-07
5e-07
6e-07
5e-07
6e-07
5e-07
5e-07
0
6e-07
5e-07
6e-07
5e-07
6e-07
5e-07
6e-07
5e-07
6e-07
5e-07
5e-07
0
6e-07
5e-07
6e-07
5e-07
6e-07
5e-07
6e-07
5e-07
6e-07
5e-07
6e-07
5e-07
5e-07
0
6e-07
5e-07
6e-07
5e-07
6e-07
5e-07
6e-07
5e-07
6e-07
5e-07
6e-07
5e-07
6e-07
5e-07
6e-07
5e-07
6e-07
5e-07
6e-07
5e-07
6e-07
5e-07
6e-07
5e-07
6e-07
5e-07
6e-07
5e-07
6e-07
5e-07
6e-07
5e-07
6e-07
5e-07
6e-07
5e-07
6e-07
5e-07
6e-07
6e-07
0
5e-07
6e-07
5e-07
6e-07
5e-07
6e-07
5e-07
6e-07
5e-07
6e-07
5e-07
6e-07
6e-07
0
5e-07
6e-07
5e-07
6e-07
5e-07
6e-07
5e-07
6e-07
5e-07
6e-07
6e-07
0
5e-07
6e-07
5e-07
6e-07
5e-07
6e-07
6e-07
0
5e-07
6e-07
5e-07
6e-07
5e-07
6e-07
6e-07
0
5e-07
6e-07
5e-07
6e-07
5e-07
6e-07
6e-07
0
5e-07
6e-07
5e-07
6e-07
6e-07
0
5e-07
6e-07
5e-07
6e-07
6e-07
0
5e-07
6e-07
5e-07
6e-07
6e-07
0
5e-07
6e-07
5e-07
6e-07
6e-07
0
5e-07
6e-07
6e-07
0
5e-07
6e-07
5e-07
6e-07
6e-07
0
5e-07
6e-07
6e-07
0
5e-07
6e-07
5e-07
6e-07
6e-07
0
5e-07
6e-07
6e-07
0
5e-07
6e-07
6e-07
0
5e-07
6e-07
6e-07
0
5e-07
6e-07
6e-07
0
5e-07
6e-07
5e-07
6e-07
6e-07
0
5e-07
6e-07
6e-07
0
5e-07
6e-07
6e-07
0
5e-07
6e-07
6e-07
0
5e-07
6e-07
6e-07
1
5e-07
6e-07
6e-07
0
5e-07
6e-07
6e-07
0
5e-07
6e-07
6e-07
0
5e-07
6e-07
6e-07
0
5e-07
6e-07
6e-07
1
5e-07
6e-07
6e-07
0
5e-07
6e-07
6e-07
0
5e-07
6e-07
6e-07
1
5e-07
6e-07
6e-07
0
5e-07
6e-07
6e-07
1
5e-07
6e-07
6e-07
1
5e-07
6e-07
6e-07
0
5e-07
6e-07
6e-07
1
5e-07
6e-07
6e-07
1
5e-07
6e-07
6e-07
1
5e-07
6e-07
6e-07
1
5e-07
6e-07
6e-07
1
5e-07
6e-07
6e-07
2
5e-07
6e-07
6e-07
1
5e-07
6e-07
6e-07
2
5e-07
6e-07
6e-07
1
5e-07
6e-07
6e-07
2
5e-07
6e-07
6e-07
2
5e-07
6e-07
6e-07
2
5e-07
6e-07
6e-07
3
5e-07
6e-07
6e-07
2
5e-07
6e-07
6e-07
3
5e-07
6e-07
6e-07
3
5e-07
6e-07
6e-07
4
5e-07
6e-07
6e-07
3
5e-07
6e-07
6e-07
5
5e-07
6e-07
6e-07
5
5e-07
6e-07
6e-07
6
5e-07
6e-07
6e-07
7
5e-07
6e-07
6e-07
9
5e-07
6e-07
6e-07
13
5e-07
6e-07
6e-07
67
7e-07
6e-07
6e-07
13
7e-07
6e-07
6e-07
9
7e-07
6e-07
6e-07
7
7e-07
6e-07
6e-07
6
7e-07
6e-07
6e-07
5
7e-07
6e-07
6e-07
5
7e-07
6e-07
6e-07
3
7e-07
6e-07
6e-07
4
7e-07
6e-07
6e-07
3
7e-07
6e-07
6e-07
3
7e-07
6e-07
6e-07
2
7e-07
6e-07
6e-07
2
7e-07
6e-07
6e-07
2
7e-07
6e-07
6e-07
2
7e-07
6e-07
6e-07
2
7e-07
6e-07
6e-07
1
7e-07
6e-07
6e-07
2
7e-07
6e-07
6e-07
1
7e-07
6e-07
6e-07
1
7e-07
6e-07
6e-07
1
7e-07
6e-07
6e-07
1
7e-07
6e-07
6e-07
1
7e-07
6e-07
6e-07
1
7e-07
6e-07
6e-07
1
7e-07
6e-07
6e-07
0
7e-07
6e-07
6e-07
1
7e-07
6e-07
6e-07
1
7e-07
6e-07
6e-07
0
7e-07
6e-07
6e-07
0
7e-07
6e-07
6e-07
1
7e-07
6e-07
6e-07
0
7e-07
6e-07
6e-07
0
7e-07
6e-07
6e-07
0
7e-07
6e-07
6e-07
0
7e-07
6e-07
6e-07
1
7e-07
6e-07
6e-07
0
7e-07
6e-07
6e-07
0
7e-07
6e-07
6e-07
0
7e-07
6e-07
7e-07
6e-07
6e-07
0
7e-07
6e-07
6e-07
0
7e-07
6e-07
6e-07
0
7e-07
6e-07
6e-07
0
7e-07
6e-07
7e-07
6e-07
6e-07
0
7e-07
6e-07
6e-07
0
7e-07
6e-07
6e-07
0
7e-07
6e-07
7e-07
6e-07
6e-07
0
7e-07
6e-07
7e-07
6e-07
6e-07
0
7e-07
6e-07
7e-07
6e-07
6e-07
0
7e-07
6e-07
7e-07
6e-07
6e-07
0
7e-07
6e-07
7e-07
6e-07
6e-07
0
7e-07
6e-07
7e-07
6e-07
7e-07
6e-07
6e-07
0
7e-07
6e-07
7e-07
6e-07
7e-07
6e-07
6e-07
0
7e-07
6e-07
7e-07
6e-07
7e-07
6e-07
7e-07
6e-07
6e-07
0
7e-07
6e-07
7e-07
6e-07
7e-07
6e-07
7e-07
6e-07
7e-07
6e-07
6e-07
0
7e-07
6e-07
7e-07
6e-07
7e-07
6e-07
7e-07
6e-07
7e-07
6e-07
7e-07
6e-07
7e-07
6e-07
7e-07
6e-07
7e-07
6e-07
7e-07
6e-07
7e-07
6e-07
7e-07
6e-07
7e-07
6e-07
7e-07
6e-07
7e-07
6e-07
7e-07
6e-07
7e-07
6e-07
7e-07
6e-07
7e-07
6e-07
7e-07
7e-07
0
6e-07
7e-07
6e-07
7e-07
6e-07
7e-07
6e-07
7e-07
6e-07
7e-07
6e-07
7e-07
7e-07
0
6e-07
7e-07
6e-07
7e-07
6e-07
7e-07
6e-07
7e-07
7e-07
0
6e-07
7e-07
6e-07
7e-07
6e-07
7e-07
7e-07
0
6e-07
7e-07
6e-07
7e-07
6e-07
7e-07
7e-07
0
6e-07
7e-07
6e-07
7e-07
7e-07
0
6e-07
7e-07
