# Pulseq sequence file
# Created by MATLAB mr toolbox

[VERSION]
major 1
minor 3
revision 0

[DEFINITIONS]
offsets_ppm -5 -4.79592 -4.59184 -4.38776 -4.18367 -3.97959 -3.77551 -3.57143 -3.36735 -3.16327 -2.95918 -2.7551 -2.55102 -2.34694 -2.14286 -1.93878 -1.73469 -1.53061 -1.32653 -1.12245 -0.918367 -0.714286 -0.510204 -0.306122 -0.102041 0.102041 0.306122 0.510204 0.714286 0.918367 1.12245 1.32653 1.53061 1.73469 1.93878 2.14286 2.34694 2.55102 2.7551 2.95918 3.16327 3.36735 3.57143 3.77551 3.97959 4.18367 4.38776 4.59184 4.79592 5 
run_m0_scan 0 

# Format of blocks:
#  #  D RF  GX  GY  GZ ADC EXT
[BLOCKS]
   1  1  0   0   0   0  0  0
   2  0  1   0   0   0  0  0
   3  2  0   0   0   0  0  0
   4  0  2   0   0   0  0  0
   5  2  0   0   0   0  0  0
   6  0  3   0   0   0  0  0
   7  2  0   0   0   0  0  0
   8  0  4   0   0   0  0  0
   9  2  0   0   0   0  0  0
  10  0  5   0   0   0  0  0
  11  2  0   0   0   0  0  0
  12  0  6   0   0   0  0  0
  13  2  0   0   0   0  0  0
  14  0  7   0   0   0  0  0
  15  2  0   0   0   0  0  0
  16  0  8   0   0   0  0  0
  17  2  0   0   0   0  0  0
  18  0  9   0   0   0  0  0
  19  2  0   0   0   0  0  0
  20  0 10   0   0   0  0  0
  21  0  0   1   1   1  0  0
  22  0  0   0   0   0  1  0
  23  1  0   0   0   0  0  0
  24  0 11   0   0   0  0  0
  25  2  0   0   0   0  0  0
  26  0 12   0   0   0  0  0
  27  2  0   0   0   0  0  0
  28  0 13   0   0   0  0  0
  29  2  0   0   0   0  0  0
  30  0 14   0   0   0  0  0
  31  2  0   0   0   0  0  0
  32  0 15   0   0   0  0  0
  33  2  0   0   0   0  0  0
  34  0 16   0   0   0  0  0
  35  2  0   0   0   0  0  0
  36  0 17   0   0   0  0  0
  37  2  0   0   0   0  0  0
  38  0 18   0   0   0  0  0
  39  2  0   0   0   0  0  0
  40  0 19   0   0   0  0  0
  41  2  0   0   0   0  0  0
  42  0 20   0   0   0  0  0
  43  0  0   1   1   1  0  0
  44  0  0   0   0   0  1  0
  45  1  0   0   0   0  0  0
  46  0 21   0   0   0  0  0
  47  2  0   0   0   0  0  0
  48  0 22   0   0   0  0  0
  49  2  0   0   0   0  0  0
  50  0 23   0   0   0  0  0
  51  2  0   0   0   0  0  0
  52  0 24   0   0   0  0  0
  53  2  0   0   0   0  0  0
  54  0 25   0   0   0  0  0
  55  2  0   0   0   0  0  0
  56  0 26   0   0   0  0  0
  57  2  0   0   0   0  0  0
  58  0 27   0   0   0  0  0
  59  2  0   0   0   0  0  0
  60  0 28   0   0   0  0  0
  61  2  0   0   0   0  0  0
  62  0 29   0   0   0  0  0
  63  2  0   0   0   0  0  0
  64  0 30   0   0   0  0  0
  65  0  0   1   1   1  0  0
  66  0  0   0   0   0  1  0
  67  1  0   0   0   0  0  0
  68  0 31   0   0   0  0  0
  69  2  0   0   0   0  0  0
  70  0 32   0   0   0  0  0
  71  2  0   0   0   0  0  0
  72  0 33   0   0   0  0  0
  73  2  0   0   0   0  0  0
  74  0 34   0   0   0  0  0
  75  2  0   0   0   0  0  0
  76  0 35   0   0   0  0  0
  77  2  0   0   0   0  0  0
  78  0 36   0   0   0  0  0
  79  2  0   0   0   0  0  0
  80  0 37   0   0   0  0  0
  81  2  0   0   0   0  0  0
  82  0 38   0   0   0  0  0
  83  2  0   0   0   0  0  0
  84  0 39   0   0   0  0  0
  85  2  0   0   0   0  0  0
  86  0 40   0   0   0  0  0
  87  0  0   1   1   1  0  0
  88  0  0   0   0   0  1  0
  89  1  0   0   0   0  0  0
  90  0 41   0   0   0  0  0
  91  2  0   0   0   0  0  0
  92  0 42   0   0   0  0  0
  93  2  0   0   0   0  0  0
  94  0 43   0   0   0  0  0
  95  2  0   0   0   0  0  0
  96  0 44   0   0   0  0  0
  97  2  0   0   0   0  0  0
  98  0 45   0   0   0  0  0
  99  2  0   0   0   0  0  0
 100  0 46   0   0   0  0  0
 101  2  0   0   0   0  0  0
 102  0 47   0   0   0  0  0
 103  2  0   0   0   0  0  0
 104  0 48   0   0   0  0  0
 105  2  0   0   0   0  0  0
 106  0 49   0   0   0  0  0
 107  2  0   0   0   0  0  0
 108  0 50   0   0   0  0  0
 109  0  0   1   1   1  0  0
 110  0  0   0   0   0  1  0
 111  1  0   0   0   0  0  0
 112  0 51   0   0   0  0  0
 113  2  0   0   0   0  0  0
 114  0 52   0   0   0  0  0
 115  2  0   0   0   0  0  0
 116  0 53   0   0   0  0  0
 117  2  0   0   0   0  0  0
 118  0 54   0   0   0  0  0
 119  2  0   0   0   0  0  0
 120  0 55   0   0   0  0  0
 121  2  0   0   0   0  0  0
 122  0 56   0   0   0  0  0
 123  2  0   0   0   0  0  0
 124  0 57   0   0   0  0  0
 125  2  0   0   0   0  0  0
 126  0 58   0   0   0  0  0
 127  2  0   0   0   0  0  0
 128  0 59   0   0   0  0  0
 129  2  0   0   0   0  0  0
 130  0 60   0   0   0  0  0
 131  0  0   1   1   1  0  0
 132  0  0   0   0   0  1  0
 133  1  0   0   0   0  0  0
 134  0 61   0   0   0  0  0
 135  2  0   0   0   0  0  0
 136  0 62   0   0   0  0  0
 137  2  0   0   0   0  0  0
 138  0 63   0   0   0  0  0
 139  2  0   0   0   0  0  0
 140  0 64   0   0   0  0  0
 141  2  0   0   0   0  0  0
 142  0 65   0   0   0  0  0
 143  2  0   0   0   0  0  0
 144  0 66   0   0   0  0  0
 145  2  0   0   0   0  0  0
 146  0 67   0   0   0  0  0
 147  2  0   0   0   0  0  0
 148  0 68   0   0   0  0  0
 149  2  0   0   0   0  0  0
 150  0 69   0   0   0  0  0
 151  2  0   0   0   0  0  0
 152  0 70   0   0   0  0  0
 153  0  0   1   1   1  0  0
 154  0  0   0   0   0  1  0
 155  1  0   0   0   0  0  0
 156  0 71   0   0   0  0  0
 157  2  0   0   0   0  0  0
 158  0 72   0   0   0  0  0
 159  2  0   0   0   0  0  0
 160  0 73   0   0   0  0  0
 161  2  0   0   0   0  0  0
 162  0 74   0   0   0  0  0
 163  2  0   0   0   0  0  0
 164  0 75   0   0   0  0  0
 165  2  0   0   0   0  0  0
 166  0 76   0   0   0  0  0
 167  2  0   0   0   0  0  0
 168  0 77   0   0   0  0  0
 169  2  0   0   0   0  0  0
 170  0 78   0   0   0  0  0
 171  2  0   0   0   0  0  0
 172  0 79   0   0   0  0  0
 173  2  0   0   0   0  0  0
 174  0 80   0   0   0  0  0
 175  0  0   1   1   1  0  0
 176  0  0   0   0   0  1  0
 177  1  0   0   0   0  0  0
 178  0 81   0   0   0  0  0
 179  2  0   0   0   0  0  0
 180  0 82   0   0   0  0  0
 181  2  0   0   0   0  0  0
 182  0 83   0   0   0  0  0
 183  2  0   0   0   0  0  0
 184  0 84   0   0   0  0  0
 185  2  0   0   0   0  0  0
 186  0 85   0   0   0  0  0
 187  2  0   0   0   0  0  0
 188  0 86   0   0   0  0  0
 189  2  0   0   0   0  0  0
 190  0 87   0   0   0  0  0
 191  2  0   0   0   0  0  0
 192  0 88   0   0   0  0  0
 193  2  0   0   0   0  0  0
 194  0 89   0   0   0  0  0
 195  2  0   0   0   0  0  0
 196  0 90   0   0   0  0  0
 197  0  0   1   1   1  0  0
 198  0  0   0   0   0  1  0
 199  1  0   0   0   0  0  0
 200  0 91   0   0   0  0  0
 201  2  0   0   0   0  0  0
 202  0 92   0   0   0  0  0
 203  2  0   0   0   0  0  0
 204  0 93   0   0   0  0  0
 205  2  0   0   0   0  0  0
 206  0 94   0   0   0  0  0
 207  2  0   0   0   0  0  0
 208  0 95   0   0   0  0  0
 209  2  0   0   0   0  0  0
 210  0 96   0   0   0  0  0
 211  2  0   0   0   0  0  0
 212  0 97   0   0   0  0  0
 213  2  0   0   0   0  0  0
 214  0 98   0   0   0  0  0
 215  2  0   0   0   0  0  0
 216  0 99   0   0   0  0  0
 217  2  0   0   0   0  0  0
 218  0 100   0   0   0  0  0
 219  0  0   1   1   1  0  0
 220  0  0   0   0   0  1  0
 221  1  0   0   0   0  0  0
 222  0 101   0   0   0  0  0
 223  2  0   0   0   0  0  0
 224  0 102   0   0   0  0  0
 225  2  0   0   0   0  0  0
 226  0 103   0   0   0  0  0
 227  2  0   0   0   0  0  0
 228  0 104   0   0   0  0  0
 229  2  0   0   0   0  0  0
 230  0 105   0   0   0  0  0
 231  2  0   0   0   0  0  0
 232  0 106   0   0   0  0  0
 233  2  0   0   0   0  0  0
 234  0 107   0   0   0  0  0
 235  2  0   0   0   0  0  0
 236  0 108   0   0   0  0  0
 237  2  0   0   0   0  0  0
 238  0 109   0   0   0  0  0
 239  2  0   0   0   0  0  0
 240  0 110   0   0   0  0  0
 241  0  0   1   1   1  0  0
 242  0  0   0   0   0  1  0
 243  1  0   0   0   0  0  0
 244  0 111   0   0   0  0  0
 245  2  0   0   0   0  0  0
 246  0 112   0   0   0  0  0
 247  2  0   0   0   0  0  0
 248  0 113   0   0   0  0  0
 249  2  0   0   0   0  0  0
 250  0 114   0   0   0  0  0
 251  2  0   0   0   0  0  0
 252  0 115   0   0   0  0  0
 253  2  0   0   0   0  0  0
 254  0 116   0   0   0  0  0
 255  2  0   0   0   0  0  0
 256  0 117   0   0   0  0  0
 257  2  0   0   0   0  0  0
 258  0 118   0   0   0  0  0
 259  2  0   0   0   0  0  0
 260  0 119   0   0   0  0  0
 261  2  0   0   0   0  0  0
 262  0 120   0   0   0  0  0
 263  0  0   1   1   1  0  0
 264  0  0   0   0   0  1  0
 265  1  0   0   0   0  0  0
 266  0 121   0   0   0  0  0
 267  2  0   0   0   0  0  0
 268  0 122   0   0   0  0  0
 269  2  0   0   0   0  0  0
 270  0 123   0   0   0  0  0
 271  2  0   0   0   0  0  0
 272  0 124   0   0   0  0  0
 273  2  0   0   0   0  0  0
 274  0 125   0   0   0  0  0
 275  2  0   0   0   0  0  0
 276  0 126   0   0   0  0  0
 277  2  0   0   0   0  0  0
 278  0 127   0   0   0  0  0
 279  2  0   0   0   0  0  0
 280  0 128   0   0   0  0  0
 281  2  0   0   0   0  0  0
 282  0 129   0   0   0  0  0
 283  2  0   0   0   0  0  0
 284  0 130   0   0   0  0  0
 285  0  0   1   1   1  0  0
 286  0  0   0   0   0  1  0
 287  1  0   0   0   0  0  0
 288  0 131   0   0   0  0  0
 289  2  0   0   0   0  0  0
 290  0 132   0   0   0  0  0
 291  2  0   0   0   0  0  0
 292  0 133   0   0   0  0  0
 293  2  0   0   0   0  0  0
 294  0 134   0   0   0  0  0
 295  2  0   0   0   0  0  0
 296  0 135   0   0   0  0  0
 297  2  0   0   0   0  0  0
 298  0 136   0   0   0  0  0
 299  2  0   0   0   0  0  0
 300  0 137   0   0   0  0  0
 301  2  0   0   0   0  0  0
 302  0 138   0   0   0  0  0
 303  2  0   0   0   0  0  0
 304  0 139   0   0   0  0  0
 305  2  0   0   0   0  0  0
 306  0 140   0   0   0  0  0
 307  0  0   1   1   1  0  0
 308  0  0   0   0   0  1  0
 309  1  0   0   0   0  0  0
 310  0 141   0   0   0  0  0
 311  2  0   0   0   0  0  0
 312  0 142   0   0   0  0  0
 313  2  0   0   0   0  0  0
 314  0 143   0   0   0  0  0
 315  2  0   0   0   0  0  0
 316  0 144   0   0   0  0  0
 317  2  0   0   0   0  0  0
 318  0 145   0   0   0  0  0
 319  2  0   0   0   0  0  0
 320  0 146   0   0   0  0  0
 321  2  0   0   0   0  0  0
[RF]
1      167.584 1 2 100 -1490.17 0
2      167.584 1 2 100 -1490.17 6.18322
3      167.584 1 2 100 -1490.17 6.08326
4      167.584 1 2 100 -1490.17 5.98329
5      167.584 1 2 100 -1490.17 5.88333
6      167.584 1 2 100 -1490.17 5.78336
7      167.584 1 2 100 -1490.17 5.6834
8      167.584 1 2 100 -1490.17 5.58343
9      167.584 1 2 100 -1490.17 5.48347
10      167.584 1 2 100 -1490.17 5.38351
11      167.584 1 2 100 -1429.35 0
12      167.584 1 2 100 -1429.35 0.417029
13      167.584 1 2 100 -1429.35 0.834058
14      167.584 1 2 100 -1429.35 1.25109
15      167.584 1 2 100 -1429.35 1.66812
16      167.584 1 2 100 -1429.35 2.08514
17      167.584 1 2 100 -1429.35 2.50217
18      167.584 1 2 100 -1429.35 2.9192
19      167.584 1 2 100 -1429.35 3.33623
20      167.584 1 2 100 -1429.35 3.75326
21      167.584 1 2 100 -1368.53 0
22      167.584 1 2 100 -1368.53 0.934022
23      167.584 1 2 100 -1368.53 1.86804
24      167.584 1 2 100 -1368.53 2.80207
25      167.584 1 2 100 -1368.53 3.73609
26      167.584 1 2 100 -1368.53 4.67011
27      167.584 1 2 100 -1368.53 5.60413
28      167.584 1 2 100 -1368.53 0.25497
29      167.584 1 2 100 -1368.53 1.18899
30      167.584 1 2 100 -1368.53 2.12301
31      167.584 1 2 100 -1307.7 0
32      167.584 1 2 100 -1307.7 1.45102
33      167.584 1 2 100 -1307.7 2.90203
34      167.584 1 2 100 -1307.7 4.35305
35      167.584 1 2 100 -1307.7 5.80406
36      167.584 1 2 100 -1307.7 0.971892
37      167.584 1 2 100 -1307.7 2.42291
38      167.584 1 2 100 -1307.7 3.87392
39      167.584 1 2 100 -1307.7 5.32494
40      167.584 1 2 100 -1307.7 0.492768
41      167.584 1 2 100 -1246.88 0
42      167.584 1 2 100 -1246.88 1.96801
43      167.584 1 2 100 -1246.88 3.93602
44      167.584 1 2 100 -1246.88 5.90403
45      167.584 1 2 100 -1246.88 1.58885
46      167.584 1 2 100 -1246.88 3.55686
47      167.584 1 2 100 -1246.88 5.52487
48      167.584 1 2 100 -1246.88 1.20969
49      167.584 1 2 100 -1246.88 3.1777
50      167.584 1 2 100 -1246.88 5.14571
51      167.584 1 2 100 -1186.06 0
52      167.584 1 2 100 -1186.06 2.485
53      167.584 1 2 100 -1186.06 4.97
54      167.584 1 2 100 -1186.06 1.17182
55      167.584 1 2 100 -1186.06 3.65682
56      167.584 1 2 100 -1186.06 6.14182
57      167.584 1 2 100 -1186.06 2.34364
58      167.584 1 2 100 -1186.06 4.82864
59      167.584 1 2 100 -1186.06 1.03046
60      167.584 1 2 100 -1186.06 3.51546
61      167.584 1 2 100 -1125.23 0
62      167.584 1 2 100 -1125.23 3.002
63      167.584 1 2 100 -1125.23 6.00399
64      167.584 1 2 100 -1125.23 2.7228
65      167.584 1 2 100 -1125.23 5.7248
66      167.584 1 2 100 -1125.23 2.44361
67      167.584 1 2 100 -1125.23 5.4456
68      167.584 1 2 100 -1125.23 2.16441
69      167.584 1 2 100 -1125.23 5.16641
70      167.584 1 2 100 -1125.23 1.88522
71      167.584 1 2 100 -1064.41 0
72      167.584 1 2 100 -1064.41 3.51899
73      167.584 1 2 100 -1064.41 0.754792
74      167.584 1 2 100 -1064.41 4.27378
75      167.584 1 2 100 -1064.41 1.50958
76      167.584 1 2 100 -1064.41 5.02857
77      167.584 1 2 100 -1064.41 2.26437
78      167.584 1 2 100 -1064.41 5.78336
79      167.584 1 2 100 -1064.41 3.01917
80      167.584 1 2 100 -1064.41 0.25497
81      167.584 1 2 100 -1003.59 0
82      167.584 1 2 100 -1003.59 4.03598
83      167.584 1 2 100 -1003.59 1.78878
84      167.584 1 2 100 -1003.59 5.82476
85      167.584 1 2 100 -1003.59 3.57756
86      167.584 1 2 100 -1003.59 1.33035
87      167.584 1 2 100 -1003.59 5.36633
88      167.584 1 2 100 -1003.59 3.11913
89      167.584 1 2 100 -1003.59 0.871927
90      167.584 1 2 100 -1003.59 4.90791
91      167.584 1 2 100 -942.763 0
92      167.584 1 2 100 -942.763 4.55298
93      167.584 1 2 100 -942.763 2.82276
94      167.584 1 2 100 -942.763 1.09255
95      167.584 1 2 100 -942.763 5.64553
96      167.584 1 2 100 -942.763 3.91532
97      167.584 1 2 100 -942.763 2.18511
98      167.584 1 2 100 -942.763 0.454898
99      167.584 1 2 100 -942.763 5.00787
100      167.584 1 2 100 -942.763 3.27766
101      167.584 1 2 100 -881.94 0
102      167.584 1 2 100 -881.94 5.06997
103      167.584 1 2 100 -881.94 3.85675
104      167.584 1 2 100 -881.94 2.64353
105      167.584 1 2 100 -881.94 1.43032
106      167.584 1 2 100 -881.94 0.2171
107      167.584 1 2 100 -881.94 5.28707
108      167.584 1 2 100 -881.94 4.07385
109      167.584 1 2 100 -881.94 2.86063
110      167.584 1 2 100 -881.94 1.64742
111      167.584 1 2 100 -821.116 0
112      167.584 1 2 100 -821.116 5.58696
113      167.584 1 2 100 -821.116 4.89074
114      167.584 1 2 100 -821.116 4.19451
115      167.584 1 2 100 -821.116 3.49829
116      167.584 1 2 100 -821.116 2.80207
117      167.584 1 2 100 -821.116 2.10584
118      167.584 1 2 100 -821.116 1.40962
119      167.584 1 2 100 -821.116 0.713395
120      167.584 1 2 100 -821.116 0.0171713
121      167.584 1 2 100 -760.293 0
122      167.584 1 2 100 -760.293 6.10395
123      167.584 1 2 100 -760.293 5.92472
124      167.584 1 2 100 -760.293 5.74549
125      167.584 1 2 100 -760.293 5.56626
126      167.584 1 2 100 -760.293 5.38703
127      167.584 1 2 100 -760.293 5.2078
128      167.584 1 2 100 -760.293 5.02857
129      167.584 1 2 100 -760.293 4.84934
130      167.584 1 2 100 -760.293 4.67011
131      167.584 1 2 100 -699.469 0
132      167.584 1 2 100 -699.469 0.337763
133      167.584 1 2 100 -699.469 0.675526
134      167.584 1 2 100 -699.469 1.01329
135      167.584 1 2 100 -699.469 1.35105
136      167.584 1 2 100 -699.469 1.68881
137      167.584 1 2 100 -699.469 2.02658
138      167.584 1 2 100 -699.469 2.36434
139      167.584 1 2 100 -699.469 2.7021
140      167.584 1 2 100 -699.469 3.03986
141      167.584 1 2 100 -638.646 0
142      167.584 1 2 100 -638.646 0.854756
143      167.584 1 2 100 -638.646 1.70951
144      167.584 1 2 100 -638.646 2.56427
145      167.584 1 2 100 -638.646 3.41902
146      167.584 1 2 100 -638.646 4.27378
147      167.584 1 2 100 -638.646 5.12854
148      167.584 1 2 100 -638.646 5.98329
149      167.584 1 2 100 -638.646 0.554863
150      167.584 1 2 100 -638.646 1.40962
151      167.584 1 2 100 -577.823 0
152      167.584 1 2 100 -577.823 1.37175
153      167.584 1 2 100 -577.823 2.7435
154      167.584 1 2 100 -577.823 4.11525
155      167.584 1 2 100 -577.823 5.487
156      167.584 1 2 100 -577.823 0.575561
157      167.584 1 2 100 -577.823 1.94731
158      167.584 1 2 100 -577.823 3.31906
159      167.584 1 2 100 -577.823 4.69081
160      167.584 1 2 100 -577.823 6.06256
161      167.584 1 2 100 -516.999 0
162      167.584 1 2 100 -516.999 1.88874
163      167.584 1 2 100 -516.999 3.77749
164      167.584 1 2 100 -516.999 5.66623
165      167.584 1 2 100 -516.999 1.27178
166      167.584 1 2 100 -516.999 3.16053
167      167.584 1 2 100 -516.999 5.04927
168      167.584 1 2 100 -516.999 0.654827
169      167.584 1 2 100 -516.999 2.54357
170      167.584 1 2 100 -516.999 4.43231
171      167.584 1 2 100 -456.176 0
172      167.584 1 2 100 -456.176 2.40574
173      167.584 1 2 100 -456.176 4.81147
174      167.584 1 2 100 -456.176 0.934022
175      167.584 1 2 100 -456.176 3.33976
176      167.584 1 2 100 -456.176 5.74549
177      167.584 1 2 100 -456.176 1.86804
178      167.584 1 2 100 -456.176 4.27378
179      167.584 1 2 100 -456.176 0.396331
180      167.584 1 2 100 -456.176 2.80207
181      167.584 1 2 100 -395.352 0
182      167.584 1 2 100 -395.352 2.92273
183      167.584 1 2 100 -395.352 5.84546
184      167.584 1 2 100 -395.352 2.485
185      167.584 1 2 100 -395.352 5.40773
186      167.584 1 2 100 -395.352 2.04727
187      167.584 1 2 100 -395.352 4.97
188      167.584 1 2 100 -395.352 1.60955
189      167.584 1 2 100 -395.352 4.53228
190      167.584 1 2 100 -395.352 1.17182
191      167.584 1 2 100 -334.529 0
192      167.584 1 2 100 -334.529 3.43972
193      167.584 1 2 100 -334.529 0.596259
194      167.584 1 2 100 -334.529 4.03598
195      167.584 1 2 100 -334.529 1.19252
196      167.584 1 2 100 -334.529 4.63224
197      167.584 1 2 100 -334.529 1.78878
198      167.584 1 2 100 -334.529 5.2285
199      167.584 1 2 100 -334.529 2.38504
200      167.584 1 2 100 -334.529 5.82476
201      167.584 1 2 100 -273.705 0
202      167.584 1 2 100 -273.705 3.95672
203      167.584 1 2 100 -273.705 1.63025
204      167.584 1 2 100 -273.705 5.58696
205      167.584 1 2 100 -273.705 3.26049
206      167.584 1 2 100 -273.705 0.934022
207      167.584 1 2 100 -273.705 4.89074
208      167.584 1 2 100 -273.705 2.56427
209      167.584 1 2 100 -273.705 0.237798
210      167.584 1 2 100 -273.705 4.19451
211      167.584 1 2 100 -212.882 0
212      167.584 1 2 100 -212.882 4.47371
213      167.584 1 2 100 -212.882 2.66423
214      167.584 1 2 100 -212.882 0.854756
215      167.584 1 2 100 -212.882 5.32846
216      167.584 1 2 100 -212.882 3.51899
217      167.584 1 2 100 -212.882 1.70951
218      167.584 1 2 100 -212.882 6.18322
219      167.584 1 2 100 -212.882 4.37374
220      167.584 1 2 100 -212.882 2.56427
221      167.584 1 2 100 -152.059 0
222      167.584 1 2 100 -152.059 4.9907
223      167.584 1 2 100 -152.059 3.69822
224      167.584 1 2 100 -152.059 2.40574
225      167.584 1 2 100 -152.059 1.11325
226      167.584 1 2 100 -152.059 6.10395
227      167.584 1 2 100 -152.059 4.81147
228      167.584 1 2 100 -152.059 3.51899
229      167.584 1 2 100 -152.059 2.22651
230      167.584 1 2 100 -152.059 0.934022
231      167.584 1 2 100 -91.2351 0
232      167.584 1 2 100 -91.2351 5.5077
233      167.584 1 2 100 -91.2351 4.73221
234      167.584 1 2 100 -91.2351 3.95672
235      167.584 1 2 100 -91.2351 3.18123
236      167.584 1 2 100 -91.2351 2.40574
237      167.584 1 2 100 -91.2351 1.63025
238      167.584 1 2 100 -91.2351 0.854756
239      167.584 1 2 100 -91.2351 0.0792661
240      167.584 1 2 100 -91.2351 5.58696
241      167.584 1 2 100 -30.4117 0
242      167.584 1 2 100 -30.4117 6.02469
243      167.584 1 2 100 -30.4117 5.76619
244      167.584 1 2 100 -30.4117 5.5077
245      167.584 1 2 100 -30.4117 5.2492
246      167.584 1 2 100 -30.4117 4.9907
247      167.584 1 2 100 -30.4117 4.73221
248      167.584 1 2 100 -30.4117 4.47371
249      167.584 1 2 100 -30.4117 4.21521
250      167.584 1 2 100 -30.4117 3.95672
251      167.584 1 2 100 30.4117 0
252      167.584 1 2 100 30.4117 0.258497
253      167.584 1 2 100 30.4117 0.516993
254      167.584 1 2 100 30.4117 0.77549
255      167.584 1 2 100 30.4117 1.03399
256      167.584 1 2 100 30.4117 1.29248
257      167.584 1 2 100 30.4117 1.55098
258      167.584 1 2 100 30.4117 1.80948
259      167.584 1 2 100 30.4117 2.06797
260      167.584 1 2 100 30.4117 2.32647
261      167.584 1 2 100 91.2351 0
262      167.584 1 2 100 91.2351 0.77549
263      167.584 1 2 100 91.2351 1.55098
264      167.584 1 2 100 91.2351 2.32647
265      167.584 1 2 100 91.2351 3.10196
266      167.584 1 2 100 91.2351 3.87745
267      167.584 1 2 100 91.2351 4.65294
268      167.584 1 2 100 91.2351 5.42843
269      167.584 1 2 100 91.2351 6.20392
270      167.584 1 2 100 91.2351 0.696224
271      167.584 1 2 100 152.059 0
272      167.584 1 2 100 152.059 1.29248
273      167.584 1 2 100 152.059 2.58497
274      167.584 1 2 100 152.059 3.87745
275      167.584 1 2 100 152.059 5.16993
276      167.584 1 2 100 152.059 0.179231
277      167.584 1 2 100 152.059 1.47171
278      167.584 1 2 100 152.059 2.7642
279      167.584 1 2 100 152.059 4.05668
280      167.584 1 2 100 152.059 5.34916
281      167.584 1 2 100 212.882 0
282      167.584 1 2 100 212.882 1.80948
283      167.584 1 2 100 212.882 3.61895
284      167.584 1 2 100 212.882 5.42843
285      167.584 1 2 100 212.882 0.95472
286      167.584 1 2 100 212.882 2.7642
287      167.584 1 2 100 212.882 4.57367
288      167.584 1 2 100 212.882 0.0999644
289      167.584 1 2 100 212.882 1.90944
290      167.584 1 2 100 212.882 3.71892
291      167.584 1 2 100 273.705 0
292      167.584 1 2 100 273.705 2.32647
293      167.584 1 2 100 273.705 4.65294
294      167.584 1 2 100 273.705 0.696224
295      167.584 1 2 100 273.705 3.02269
296      167.584 1 2 100 273.705 5.34916
297      167.584 1 2 100 273.705 1.39245
298      167.584 1 2 100 273.705 3.71892
299      167.584 1 2 100 273.705 6.04539
300      167.584 1 2 100 273.705 2.08867
301      167.584 1 2 100 334.529 0
302      167.584 1 2 100 334.529 2.84346
303      167.584 1 2 100 334.529 5.68693
304      167.584 1 2 100 334.529 2.2472
305      167.584 1 2 100 334.529 5.09067
306      167.584 1 2 100 334.529 1.65094
307      167.584 1 2 100 334.529 4.49441
308      167.584 1 2 100 334.529 1.05468
309      167.584 1 2 100 334.529 3.89815
310      167.584 1 2 100 334.529 0.458425
311      167.584 1 2 100 395.352 0
312      167.584 1 2 100 395.352 3.36046
313      167.584 1 2 100 395.352 0.437727
314      167.584 1 2 100 395.352 3.79818
315      167.584 1 2 100 395.352 0.875454
316      167.584 1 2 100 395.352 4.23591
317      167.584 1 2 100 395.352 1.31318
318      167.584 1 2 100 395.352 4.67364
319      167.584 1 2 100 395.352 1.75091
320      167.584 1 2 100 395.352 5.11136
321      167.584 1 2 100 456.176 0
322      167.584 1 2 100 456.176 3.87745
323      167.584 1 2 100 456.176 1.47171
324      167.584 1 2 100 456.176 5.34916
325      167.584 1 2 100 456.176 2.94343
326      167.584 1 2 100 456.176 0.537692
327      167.584 1 2 100 456.176 4.41514
328      167.584 1 2 100 456.176 2.00941
329      167.584 1 2 100 456.176 5.88685
330      167.584 1 2 100 456.176 3.48112
331      167.584 1 2 100 516.999 0
332      167.584 1 2 100 516.999 4.39444
333      167.584 1 2 100 516.999 2.5057
334      167.584 1 2 100 516.999 0.616958
335      167.584 1 2 100 516.999 5.0114
336      167.584 1 2 100 516.999 3.12266
337      167.584 1 2 100 516.999 1.23392
338      167.584 1 2 100 516.999 5.62836
339      167.584 1 2 100 516.999 3.73962
340      167.584 1 2 100 516.999 1.85087
341      167.584 1 2 100 577.823 0
342      167.584 1 2 100 577.823 4.91144
343      167.584 1 2 100 577.823 3.53969
344      167.584 1 2 100 577.823 2.16794
345      167.584 1 2 100 577.823 0.796188
346      167.584 1 2 100 577.823 5.70762
347      167.584 1 2 100 577.823 4.33587
348      167.584 1 2 100 577.823 2.96413
349      167.584 1 2 100 577.823 1.59238
350      167.584 1 2 100 577.823 0.220627
351      167.584 1 2 100 638.646 0
352      167.584 1 2 100 638.646 5.42843
353      167.584 1 2 100 638.646 4.57367
354      167.584 1 2 100 638.646 3.71892
355      167.584 1 2 100 638.646 2.86416
356      167.584 1 2 100 638.646 2.00941
357      167.584 1 2 100 638.646 1.15465
358      167.584 1 2 100 638.646 0.299893
359      167.584 1 2 100 638.646 5.72832
360      167.584 1 2 100 638.646 4.87357
361      167.584 1 2 100 699.469 0
362      167.584 1 2 100 699.469 5.94542
363      167.584 1 2 100 699.469 5.60766
364      167.584 1 2 100 699.469 5.2699
365      167.584 1 2 100 699.469 4.93213
366      167.584 1 2 100 699.469 4.59437
367      167.584 1 2 100 699.469 4.25661
368      167.584 1 2 100 699.469 3.91885
369      167.584 1 2 100 699.469 3.58108
370      167.584 1 2 100 699.469 3.24332
371      167.584 1 2 100 760.293 0
372      167.584 1 2 100 760.293 0.179231
373      167.584 1 2 100 760.293 0.358461
374      167.584 1 2 100 760.293 0.537692
375      167.584 1 2 100 760.293 0.716922
376      167.584 1 2 100 760.293 0.896153
377      167.584 1 2 100 760.293 1.07538
378      167.584 1 2 100 760.293 1.25461
379      167.584 1 2 100 760.293 1.43384
380      167.584 1 2 100 760.293 1.61307
381      167.584 1 2 100 821.116 0
382      167.584 1 2 100 821.116 0.696224
383      167.584 1 2 100 821.116 1.39245
384      167.584 1 2 100 821.116 2.08867
385      167.584 1 2 100 821.116 2.7849
386      167.584 1 2 100 821.116 3.48112
387      167.584 1 2 100 821.116 4.17734
388      167.584 1 2 100 821.116 4.87357
389      167.584 1 2 100 821.116 5.56979
390      167.584 1 2 100 821.116 6.26601
391      167.584 1 2 100 881.94 0
392      167.584 1 2 100 881.94 1.21322
393      167.584 1 2 100 881.94 2.42643
394      167.584 1 2 100 881.94 3.63965
395      167.584 1 2 100 881.94 4.85287
396      167.584 1 2 100 881.94 6.06609
397      167.584 1 2 100 881.94 0.996117
398      167.584 1 2 100 881.94 2.20933
399      167.584 1 2 100 881.94 3.42255
400      167.584 1 2 100 881.94 4.63577
401      167.584 1 2 100 942.763 0
402      167.584 1 2 100 942.763 1.73021
403      167.584 1 2 100 942.763 3.46042
404      167.584 1 2 100 942.763 5.19063
405      167.584 1 2 100 942.763 0.637656
406      167.584 1 2 100 942.763 2.36787
407      167.584 1 2 100 942.763 4.09808
408      167.584 1 2 100 942.763 5.82829
409      167.584 1 2 100 942.763 1.27531
410      167.584 1 2 100 942.763 3.00552
411      167.584 1 2 100 1003.59 0
412      167.584 1 2 100 1003.59 2.2472
413      167.584 1 2 100 1003.59 4.49441
414      167.584 1 2 100 1003.59 0.458425
415      167.584 1 2 100 1003.59 2.70563
416      167.584 1 2 100 1003.59 4.95283
417      167.584 1 2 100 1003.59 0.916851
418      167.584 1 2 100 1003.59 3.16405
419      167.584 1 2 100 1003.59 5.41126
420      167.584 1 2 100 1003.59 1.37528
421      167.584 1 2 100 1064.41 0
422      167.584 1 2 100 1064.41 2.7642
423      167.584 1 2 100 1064.41 5.52839
424      167.584 1 2 100 1064.41 2.00941
425      167.584 1 2 100 1064.41 4.7736
426      167.584 1 2 100 1064.41 1.25461
427      167.584 1 2 100 1064.41 4.01881
428      167.584 1 2 100 1064.41 0.499822
429      167.584 1 2 100 1064.41 3.26402
430      167.584 1 2 100 1064.41 6.02822
431      167.584 1 2 100 1125.23 0
432      167.584 1 2 100 1125.23 3.28119
433      167.584 1 2 100 1125.23 0.279195
434      167.584 1 2 100 1125.23 3.56038
435      167.584 1 2 100 1125.23 0.55839
436      167.584 1 2 100 1125.23 3.83958
437      167.584 1 2 100 1125.23 0.837585
438      167.584 1 2 100 1125.23 4.11877
439      167.584 1 2 100 1125.23 1.11678
440      167.584 1 2 100 1125.23 4.39797
441      167.584 1 2 100 1186.06 0
442      167.584 1 2 100 1186.06 3.79818
443      167.584 1 2 100 1186.06 1.31318
444      167.584 1 2 100 1186.06 5.11136
445      167.584 1 2 100 1186.06 2.62636
446      167.584 1 2 100 1186.06 0.141361
447      167.584 1 2 100 1186.06 3.93954
448      167.584 1 2 100 1186.06 1.45454
449      167.584 1 2 100 1186.06 5.25273
450      167.584 1 2 100 1186.06 2.76772
451      167.584 1 2 100 1246.88 0
452      167.584 1 2 100 1246.88 4.31518
453      167.584 1 2 100 1246.88 2.34717
454      167.584 1 2 100 1246.88 0.379159
455      167.584 1 2 100 1246.88 4.69434
456      167.584 1 2 100 1246.88 2.72633
457      167.584 1 2 100 1246.88 0.758319
458      167.584 1 2 100 1246.88 5.0735
459      167.584 1 2 100 1246.88 3.10549
460      167.584 1 2 100 1246.88 1.13748
461      167.584 1 2 100 1307.7 0
462      167.584 1 2 100 1307.7 4.83217
463      167.584 1 2 100 1307.7 3.38115
464      167.584 1 2 100 1307.7 1.93014
465      167.584 1 2 100 1307.7 0.479124
466      167.584 1 2 100 1307.7 5.31129
467      167.584 1 2 100 1307.7 3.86028
468      167.584 1 2 100 1307.7 2.40926
469      167.584 1 2 100 1307.7 0.958247
470      167.584 1 2 100 1307.7 5.79042
471      167.584 1 2 100 1368.53 0
472      167.584 1 2 100 1368.53 5.34916
473      167.584 1 2 100 1368.53 4.41514
474      167.584 1 2 100 1368.53 3.48112
475      167.584 1 2 100 1368.53 2.5471
476      167.584 1 2 100 1368.53 1.61307
477      167.584 1 2 100 1368.53 0.679052
478      167.584 1 2 100 1368.53 6.02822
479      167.584 1 2 100 1368.53 5.09419
480      167.584 1 2 100 1368.53 4.16017
481      167.584 1 2 100 1429.35 0
482      167.584 1 2 100 1429.35 5.86616
483      167.584 1 2 100 1429.35 5.44913
484      167.584 1 2 100 1429.35 5.0321
485      167.584 1 2 100 1429.35 4.61507
486      167.584 1 2 100 1429.35 4.19804
487      167.584 1 2 100 1429.35 3.78101
488      167.584 1 2 100 1429.35 3.36398
489      167.584 1 2 100 1429.35 2.94695
490      167.584 1 2 100 1429.35 2.52993
491      167.584 1 2 100 1490.17 0
492      167.584 1 2 100 1490.17 0.0999644
