# Pulseq sequence file
# Created by MATLAB mr toolbox

# Created for Pulseq-CEST
# https://pulseq-cest.github.io/
# Created by: Kai Herz
# Created at: 09-Sep-2021 15:39:54

[VERSION]
major 1
minor 4
revision 0

[DEFINITIONS]
AdcRasterTime 1e-07 
B0 3 
B1cwpe 2.02979811 
BlockDurationRaster 1e-05 
DCsat 0.555555556 
GradientRasterTime 1e-05 
M0_offset -300 
RadiofrequencyRasterTime 1e-06 
Trec 2.4 
Trec_M0 12 
Tsat 1.76 
n_pulses 20 
num_meas 41 
offsets_ppm -300 -8 -7.58974359 -7.17948718 -6.76923077 -6.35897436 -5.94871795 -5.53846154 -5.12820513 -4.71794872 -4.30769231 -3.8974359 -3.48717949 -3.07692308 -2.66666667 -2.25641026 -1.84615385 -1.43589744 -1.02564103 -0.615384615 -0.205128205 0.205128205 0.615384615 1.02564103 1.43589744 1.84615385 2.25641026 2.66666667 3.07692308 3.48717949 3.8974359 4.30769231 4.71794872 5.12820513 5.53846154 5.94871795 6.35897436 6.76923077 7.17948718 7.58974359 8 
seq_id_string APTw_3T_example 
td 0.04 
tp 0.05 

# Format of blocks:
# NUM DUR RF  GX  GY  GZ  ADC  EXT
[BLOCKS]
   1 1200000   0   0   0   0  0  0
   2 5013   1   0   0   0  0  0
   3 4000   0   0   0   0  0  0
   4 5013   2   0   0   0  0  0
   5 4000   0   0   0   0  0  0
   6 5013   3   0   0   0  0  0
   7 4000   0   0   0   0  0  0
   8 5013   4   0   0   0  0  0
   9 4000   0   0   0   0  0  0
  10 5013   5   0   0   0  0  0
  11 4000   0   0   0   0  0  0
  12 5013   6   0   0   0  0  0
  13 4000   0   0   0   0  0  0
  14 5013   7   0   0   0  0  0
  15 4000   0   0   0   0  0  0
  16 5013   8   0   0   0  0  0
  17 4000   0   0   0   0  0  0
  18 5013   9   0   0   0  0  0
  19 4000   0   0   0   0  0  0
  20 5013  10   0   0   0  0  0
  21 4000   0   0   0   0  0  0
  22 5013  11   0   0   0  0  0
  23 4000   0   0   0   0  0  0
  24 5013  12   0   0   0  0  0
  25 4000   0   0   0   0  0  0
  26 5013  13   0   0   0  0  0
  27 4000   0   0   0   0  0  0
  28 5013  14   0   0   0  0  0
  29 4000   0   0   0   0  0  0
  30 5013  15   0   0   0  0  0
  31 4000   0   0   0   0  0  0
  32 5013  16   0   0   0  0  0
  33 4000   0   0   0   0  0  0
  34 5013  17   0   0   0  0  0
  35 4000   0   0   0   0  0  0
  36 5013  18   0   0   0  0  0
  37 4000   0   0   0   0  0  0
  38 5013  19   0   0   0  0  0
  39 4000   0   0   0   0  0  0
  40 5013  20   0   0   0  0  0
  41 650   0   1   1   1  0  0
  42 100   0   0   0   0  1  0
  43 240000   0   0   0   0  0  0
  44 5013  21   0   0   0  0  0
  45 4000   0   0   0   0  0  0
  46 5013  22   0   0   0  0  0
  47 4000   0   0   0   0  0  0
  48 5013  23   0   0   0  0  0
  49 4000   0   0   0   0  0  0
  50 5013  24   0   0   0  0  0
  51 4000   0   0   0   0  0  0
  52 5013  25   0   0   0  0  0
  53 4000   0   0   0   0  0  0
  54 5013  26   0   0   0  0  0
  55 4000   0   0   0   0  0  0
  56 5013  27   0   0   0  0  0
  57 4000   0   0   0   0  0  0
  58 5013  28   0   0   0  0  0
  59 4000   0   0   0   0  0  0
  60 5013  29   0   0   0  0  0
  61 4000   0   0   0   0  0  0
  62 5013  30   0   0   0  0  0
  63 4000   0   0   0   0  0  0
  64 5013  31   0   0   0  0  0
  65 4000   0   0   0   0  0  0
  66 5013  32   0   0   0  0  0
  67 4000   0   0   0   0  0  0
  68 5013  33   0   0   0  0  0
  69 4000   0   0   0   0  0  0
  70 5013  34   0   0   0  0  0
  71 4000   0   0   0   0  0  0
  72 5013  35   0   0   0  0  0
  73 4000   0   0   0   0  0  0
  74 5013  36   0   0   0  0  0
  75 4000   0   0   0   0  0  0
  76 5013  37   0   0   0  0  0
  77 4000   0   0   0   0  0  0
  78 5013  38   0   0   0  0  0
  79 4000   0   0   0   0  0  0
  80 5013  39   0   0   0  0  0
  81 4000   0   0   0   0  0  0
  82 5013  40   0   0   0  0  0
  83 650   0   1   1   1  0  0
  84 100   0   0   0   0  1  0
  85 240000   0   0   0   0  0  0
  86 5013  41   0   0   0  0  0
  87 4000   0   0   0   0  0  0
  88 5013  42   0   0   0  0  0
  89 4000   0   0   0   0  0  0
  90 5013  43   0   0   0  0  0
  91 4000   0   0   0   0  0  0
  92 5013  44   0   0   0  0  0
  93 4000   0   0   0   0  0  0
  94 5013  45   0   0   0  0  0
  95 4000   0   0   0   0  0  0
  96 5013  46   0   0   0  0  0
  97 4000   0   0   0   0  0  0
  98 5013  47   0   0   0  0  0
  99 4000   0   0   0   0  0  0
 100 5013  48   0   0   0  0  0
 101 4000   0   0   0   0  0  0
 102 5013  49   0   0   0  0  0
 103 4000   0   0   0   0  0  0
 104 5013  50   0   0   0  0  0
 105 4000   0   0   0   0  0  0
 106 5013  51   0   0   0  0  0
 107 4000   0   0   0   0  0  0
 108 5013  52   0   0   0  0  0
 109 4000   0   0   0   0  0  0
 110 5013  53   0   0   0  0  0
 111 4000   0   0   0   0  0  0
 112 5013  54   0   0   0  0  0
 113 4000   0   0   0   0  0  0
 114 5013  55   0   0   0  0  0
 115 4000   0   0   0   0  0  0
 116 5013  56   0   0   0  0  0
 117 4000   0   0   0   0  0  0
 118 5013  57   0   0   0  0  0
 119 4000   0   0   0   0  0  0
 120 5013  58   0   0   0  0  0
 121 4000   0   0   0   0  0  0
 122 5013  59   0   0   0  0  0
 123 4000   0   0   0   0  0  0
 124 5013  60   0   0   0  0  0
 125 650   0   1   1   1  0  0
 126 100   0   0   0   0  1  0
 127 240000   0   0   0   0  0  0
 128 5013  61   0   0   0  0  0
 129 4000   0   0   0   0  0  0
 130 5013  62   0   0   0  0  0
 131 4000   0   0   0   0  0  0
 132 5013  63   0   0   0  0  0
 133 4000   0   0   0   0  0  0
 134 5013  64   0   0   0  0  0
 135 4000   0   0   0   0  0  0
 136 5013  65   0   0   0  0  0
 137 4000   0   0   0   0  0  0
 138 5013  66   0   0   0  0  0
 139 4000   0   0   0   0  0  0
 140 5013  67   0   0   0  0  0
 141 4000   0   0   0   0  0  0
 142 5013  68   0   0   0  0  0
 143 4000   0   0   0   0  0  0
 144 5013  69   0   0   0  0  0
 145 4000   0   0   0   0  0  0
 146 5013  70   0   0   0  0  0
 147 4000   0   0   0   0  0  0
 148 5013  71   0   0   0  0  0
 149 4000   0   0   0   0  0  0
 150 5013  72   0   0   0  0  0
 151 4000   0   0   0   0  0  0
 152 5013  73   0   0   0  0  0
 153 4000   0   0   0   0  0  0
 154 5013  74   0   0   0  0  0
 155 4000   0   0   0   0  0  0
 156 5013  75   0   0   0  0  0
 157 4000   0   0   0   0  0  0
 158 5013  76   0   0   0  0  0
 159 4000   0   0   0   0  0  0
 160 5013  77   0   0   0  0  0
 161 4000   0   0   0   0  0  0
 162 5013  78   0   0   0  0  0
 163 4000   0   0   0   0  0  0
 164 5013  79   0   0   0  0  0
 165 4000   0   0   0   0  0  0
 166 5013  80   0   0   0  0  0
 167 650   0   1   1   1  0  0
 168 100   0   0   0   0  1  0
 169 240000   0   0   0   0  0  0
 170 5013  81   0   0   0  0  0
 171 4000   0   0   0   0  0  0
 172 5013  82   0   0   0  0  0
 173 4000   0   0   0   0  0  0
 174 5013  83   0   0   0  0  0
 175 4000   0   0   0   0  0  0
 176 5013  84   0   0   0  0  0
 177 4000   0   0   0   0  0  0
 178 5013  85   0   0   0  0  0
 179 4000   0   0   0   0  0  0
 180 5013  86   0   0   0  0  0
 181 4000   0   0   0   0  0  0
 182 5013  87   0   0   0  0  0
 183 4000   0   0   0   0  0  0
 184 5013  88   0   0   0  0  0
 185 4000   0   0   0   0  0  0
 186 5013  89   0   0   0  0  0
 187 4000   0   0   0   0  0  0
 188 5013  90   0   0   0  0  0
 189 4000   0   0   0   0  0  0
 190 5013  91   0   0   0  0  0
 191 4000   0   0   0   0  0  0
 192 5013  92   0   0   0  0  0
 193 4000   0   0   0   0  0  0
 194 5013  93   0   0   0  0  0
 195 4000   0   0   0   0  0  0
 196 5013  94   0   0   0  0  0
 197 4000   0   0   0   0  0  0
 198 5013  95   0   0   0  0  0
 199 4000   0   0   0   0  0  0
 200 5013  96   0   0   0  0  0
 201 4000   0   0   0   0  0  0
 202 5013  97   0   0   0  0  0
 203 4000   0   0   0   0  0  0
 204 5013  98   0   0   0  0  0
 205 4000   0   0   0   0  0  0
 206 5013  99   0   0   0  0  0
 207 4000   0   0   0   0  0  0
 208 5013 100   0   0   0  0  0
 209 650   0   1   1   1  0  0
 210 100   0   0   0   0  1  0
 211 240000   0   0   0   0  0  0
 212 5013 101   0   0   0  0  0
 213 4000   0   0   0   0  0  0
 214 5013 102   0   0   0  0  0
 215 4000   0   0   0   0  0  0
 216 5013 103   0   0   0  0  0
 217 4000   0   0   0   0  0  0
 218 5013 104   0   0   0  0  0
 219 4000   0   0   0   0  0  0
 220 5013 105   0   0   0  0  0
 221 4000   0   0   0   0  0  0
 222 5013 106   0   0   0  0  0
 223 4000   0   0   0   0  0  0
 224 5013 107   0   0   0  0  0
 225 4000   0   0   0   0  0  0
 226 5013 108   0   0   0  0  0
 227 4000   0   0   0   0  0  0
 228 5013 109   0   0   0  0  0
 229 4000   0   0   0   0  0  0
 230 5013 110   0   0   0  0  0
 231 4000   0   0   0   0  0  0
 232 5013 111   0   0   0  0  0
 233 4000   0   0   0   0  0  0
 234 5013 112   0   0   0  0  0
 235 4000   0   0   0   0  0  0
 236 5013 113   0   0   0  0  0
 237 4000   0   0   0   0  0  0
 238 5013 114   0   0   0  0  0
 239 4000   0   0   0   0  0  0
 240 5013 115   0   0   0  0  0
 241 4000   0   0   0   0  0  0
 242 5013 116   0   0   0  0  0
 243 4000   0   0   0   0  0  0
 244 5013 117   0   0   0  0  0
 245 4000   0   0   0   0  0  0
 246 5013 118   0   0   0  0  0
 247 4000   0   0   0   0  0  0
 248 5013 119   0   0   0  0  0
 249 4000   0   0   0   0  0  0
 250 5013 120   0   0   0  0  0
 251 650   0   1   1   1  0  0
 252 100   0   0   0   0  1  0
 253 240000   0   0   0   0  0  0
 254 5013 121   0   0   0  0  0
 255 4000   0   0   0   0  0  0
 256 5013 122   0   0   0  0  0
 257 4000   0   0   0   0  0  0
 258 5013 123   0   0   0  0  0
 259 4000   0   0   0   0  0  0
 260 5013 124   0   0   0  0  0
 261 4000   0   0   0   0  0  0
 262 5013 125   0   0   0  0  0
 263 4000   0   0   0   0  0  0
 264 5013 126   0   0   0  0  0
 265 4000   0   0   0   0  0  0
 266 5013 127   0   0   0  0  0
 267 4000   0   0   0   0  0  0
 268 5013 128   0   0   0  0  0
 269 4000   0   0   0   0  0  0
 270 5013 129   0   0   0  0  0
 271 4000   0   0   0   0  0  0
 272 5013 130   0   0   0  0  0
 273 4000   0   0   0   0  0  0
 274 5013 131   0   0   0  0  0
 275 4000   0   0   0   0  0  0
 276 5013 132   0   0   0  0  0
 277 4000   0   0   0   0  0  0
 278 5013 133   0   0   0  0  0
 279 4000   0   0   0   0  0  0
 280 5013 134   0   0   0  0  0
[RF]
1      189.815 1 2 0 100 -38318.8 0
2      189.815 1 2 0 100 -38318.8 0.389557
3      189.815 1 2 0 100 -38318.8 0.779115
4      189.815 1 2 0 100 -38318.8 1.16867
5      189.815 1 2 0 100 -38318.8 1.55823
6      189.815 1 2 0 100 -38318.8 1.94779
7      189.815 1 2 0 100 -38318.8 2.33734
8      189.815 1 2 0 100 -38318.8 2.7269
9      189.815 1 2 0 100 -38318.8 3.11646
10      189.815 1 2 0 100 -38318.8 3.50602
11      189.815 1 2 0 100 -38318.8 3.89557
12      189.815 1 2 0 100 -38318.8 4.28513
13      189.815 1 2 0 100 -38318.8 4.67469
14      189.815 1 2 0 100 -38318.8 5.06425
15      189.815 1 2 0 100 -38318.8 5.4538
16      189.815 1 2 0 100 -38318.8 5.84336
17      189.815 1 2 0 100 -38318.8 6.23292
18      189.815 1 2 0 100 -38318.8 0.339292
19      189.815 1 2 0 100 -38318.8 0.728849
20      189.815 1 2 0 100 -38318.8 1.11841
21      189.815 1 2 0 100 -1021.83 0
22      189.815 1 2 0 100 -1021.83 5.70714
23      189.815 1 2 0 100 -1021.83 5.1311
24      189.815 1 2 0 100 -1021.83 4.55506
25      189.815 1 2 0 100 -1021.83 3.97902
26      189.815 1 2 0 100 -1021.83 3.40297
27      189.815 1 2 0 100 -1021.83 2.82693
28      189.815 1 2 0 100 -1021.83 2.25089
29      189.815 1 2 0 100 -1021.83 1.67485
30      189.815 1 2 0 100 -1021.83 1.0988
31      189.815 1 2 0 100 -1021.83 0.522761
32      189.815 1 2 0 100 -1021.83 6.2299
33      189.815 1 2 0 100 -1021.83 5.65386
34      189.815 1 2 0 100 -1021.83 5.07782
35      189.815 1 2 0 100 -1021.83 4.50178
36      189.815 1 2 0 100 -1021.83 3.92573
37      189.815 1 2 0 100 -1021.83 3.34969
38      189.815 1 2 0 100 -1021.83 2.77365
39      189.815 1 2 0 100 -1021.83 2.19761
40      189.815 1 2 0 100 -1021.83 1.62156
41      189.815 1 2 0 100 -969.432 0
42      189.815 1 2 0 100 -969.432 3.32007
43      189.815 1 2 0 100 -969.432 0.356962
44      189.815 1 2 0 100 -969.432 3.67704
45      189.815 1 2 0 100 -969.432 0.713925
46      189.815 1 2 0 100 -969.432 4.034
47      189.815 1 2 0 100 -969.432 1.07089
48      189.815 1 2 0 100 -969.432 4.39096
49      189.815 1 2 0 100 -969.432 1.42785
50      189.815 1 2 0 100 -969.432 4.74792
51      189.815 1 2 0 100 -969.432 1.78481
52      189.815 1 2 0 100 -969.432 5.10489
53      189.815 1 2 0 100 -969.432 2.14177
54      189.815 1 2 0 100 -969.432 5.46185
55      189.815 1 2 0 100 -969.432 2.49874
56      189.815 1 2 0 100 -969.432 5.81881
57      189.815 1 2 0 100 -969.432 2.8557
58      189.815 1 2 0 100 -969.432 6.17577
59      189.815 1 2 0 100 -969.432 3.21266
60      189.815 1 2 0 100 -969.432 0.249549
61      189.815 1 2 0 100 -917.03 0
62      189.815 1 2 0 100 -917.03 0.933005
63      189.815 1 2 0 100 -917.03 1.86601
64      189.815 1 2 0 100 -917.03 2.79901
65      189.815 1 2 0 100 -917.03 3.73202
66      189.815 1 2 0 100 -917.03 4.66502
67      189.815 1 2 0 100 -917.03 5.59803
68      189.815 1 2 0 100 -917.03 0.247847
69      189.815 1 2 0 100 -917.03 1.18085
70      189.815 1 2 0 100 -917.03 2.11386
71      189.815 1 2 0 100 -917.03 3.04686
72      189.815 1 2 0 100 -917.03 3.97987
73      189.815 1 2 0 100 -917.03 4.91287
74      189.815 1 2 0 100 -917.03 5.84588
75      189.815 1 2 0 100 -917.03 0.495695
76      189.815 1 2 0 100 -917.03 1.4287
77      189.815 1 2 0 100 -917.03 2.3617
78      189.815 1 2 0 100 -917.03 3.29471
79      189.815 1 2 0 100 -917.03 4.22771
80      189.815 1 2 0 100 -917.03 5.16072
81      189.815 1 2 0 100 -864.628 0
82      189.815 1 2 0 100 -864.628 4.82912
83      189.815 1 2 0 100 -864.628 3.37506
84      189.815 1 2 0 100 -864.628 1.92099
85      189.815 1 2 0 100 -864.628 0.466928
86      189.815 1 2 0 100 -864.628 5.29605
87      189.815 1 2 0 100 -864.628 3.84198
88      189.815 1 2 0 100 -864.628 2.38792
89      189.815 1 2 0 100 -864.628 0.933855
90      189.815 1 2 0 100 -864.628 5.76298
91      189.815 1 2 0 100 -864.628 4.30891
92      189.815 1 2 0 100 -864.628 2.85485
93      189.815 1 2 0 100 -864.628 1.40078
94      189.815 1 2 0 100 -864.628 6.2299
95      189.815 1 2 0 100 -864.628 4.77584
96      189.815 1 2 0 100 -864.628 3.32178
97      189.815 1 2 0 100 -864.628 1.86771
98      189.815 1 2 0 100 -864.628 0.413646
99      189.815 1 2 0 100 -864.628 5.24277
100      189.815 1 2 0 100 -864.628 3.7887
101      189.815 1 2 0 100 -812.227 0
102      189.815 1 2 0 100 -812.227 2.44205
103      189.815 1 2 0 100 -812.227 4.8841
104      189.815 1 2 0 100 -812.227 1.04297
105      189.815 1 2 0 100 -812.227 3.48502
106      189.815 1 2 0 100 -812.227 5.92707
107      189.815 1 2 0 100 -812.227 2.08594
108      189.815 1 2 0 100 -812.227 4.52799
109      189.815 1 2 0 100 -812.227 0.686858
110      189.815 1 2 0 100 -812.227 3.12891
111      189.815 1 2 0 100 -812.227 5.57096
112      189.815 1 2 0 100 -812.227 1.72983
113      189.815 1 2 0 100 -812.227 4.17188
114      189.815 1 2 0 100 -812.227 0.330747
115      189.815 1 2 0 100 -812.227 2.7728
116      189.815 1 2 0 100 -812.227 5.21485
117      189.815 1 2 0 100 -812.227 1.37372
118      189.815 1 2 0 100 -812.227 3.81577
119      189.815 1 2 0 100 -812.227 6.25782
120      189.815 1 2 0 100 -812.227 2.41669
121      189.815 1 2 0 100 -759.825 0
122      189.815 1 2 0 100 -759.825 0.0549827
123      189.815 1 2 0 100 -759.825 0.109965
124      189.815 1 2 0 100 -759.825 0.164948
125      189.815 1 2 0 100 -759.825 0.219931
126      189.815 1 2 0 100 -759.825 0.274914
127      189.815 1 2 0 100 -759.825 0.329896
128      189.815 1 2 0 100 -759.825 0.384879
129      189.815 1 2 0 100 -759.825 0.439862
130      189.815 1 2 0 100 -759.825 0.494844
131      189.815 1 2 0 100 -759.825 0.549827
132      189.815 1 2 0 100 -759.825 0.60481
133      189.815 1 2 0 100 -759.825 0.659792
134      189.815 1 2 0 100 -759.825 0.714775
135      189.815 1 2 0 100 -759.825 0.769758
136      189.815 1 2 0 100 -759.825 0.824741
137      189.815 1 2 0 100 -759.825 0.879723
138      189.815 1 2 0 100 -759.825 0.934706
139      189.815 1 2 0 100 -759.825 0.989689
140      189.815 1 2 0 100 -759.825 1.04467
141      189.815 1 2 0 100 -707.423 0
142      189.815 1 2 0 100 -707.423 3.9511
143      189.815 1 2 0 100 -707.423 1.61901
144      189.815 1 2 0 100 -707.423 5.57011
145      189.815 1 2 0 100 -707.423 3.23803
146      189.815 1 2 0 100 -707.423 0.905939
147      189.815 1 2 0 100 -707.423 4.85704
148      189.815 1 2 0 100 -707.423 2.52495
149      189.815 1 2 0 100 -707.423 0.192865
150      189.815 1 2 0 100 -707.423 4.14396
151      189.815 1 2 0 100 -707.423 1.81188
152      189.815 1 2 0 100 -707.423 5.76298
153      189.815 1 2 0 100 -707.423 3.43089
154      189.815 1 2 0 100 -707.423 1.0988
155      189.815 1 2 0 100 -707.423 5.0499
156      189.815 1 2 0 100 -707.423 2.71782
157      189.815 1 2 0 100 -707.423 0.38573
158      189.815 1 2 0 100 -707.423 4.33683
159      189.815 1 2 0 100 -707.423 2.00474
160      189.815 1 2 0 100 -707.423 5.95584
161      189.815 1 2 0 100 -655.022 0
162      189.815 1 2 0 100 -655.022 1.56403
163      189.815 1 2 0 100 -655.022 3.12806
164      189.815 1 2 0 100 -655.022 4.69209
165      189.815 1 2 0 100 -655.022 6.25612
166      189.815 1 2 0 100 -655.022 1.53696
167      189.815 1 2 0 100 -655.022 3.10099
168      189.815 1 2 0 100 -655.022 4.66502
169      189.815 1 2 0 100 -655.022 6.22905
170      189.815 1 2 0 100 -655.022 1.5099
171      189.815 1 2 0 100 -655.022 3.07393
172      189.815 1 2 0 100 -655.022 4.63796
173      189.815 1 2 0 100 -655.022 6.20199
174      189.815 1 2 0 100 -655.022 1.48283
175      189.815 1 2 0 100 -655.022 3.04686
176      189.815 1 2 0 100 -655.022 4.61089
177      189.815 1 2 0 100 -655.022 6.17492
178      189.815 1 2 0 100 -655.022 1.45577
179      189.815 1 2 0 100 -655.022 3.0198
180      189.815 1 2 0 100 -655.022 4.58383
181      189.815 1 2 0 100 -602.62 0
182      189.815 1 2 0 100 -602.62 5.46015
183      189.815 1 2 0 100 -602.62 4.63711
184      189.815 1 2 0 100 -602.62 3.81407
185      189.815 1 2 0 100 -602.62 2.99103
186      189.815 1 2 0 100 -602.62 2.16799
187      189.815 1 2 0 100 -602.62 1.34495
188      189.815 1 2 0 100 -602.62 0.52191
189      189.815 1 2 0 100 -602.62 5.98206
190      189.815 1 2 0 100 -602.62 5.15902
191      189.815 1 2 0 100 -602.62 4.33598
192      189.815 1 2 0 100 -602.62 3.51294
193      189.815 1 2 0 100 -602.62 2.6899
194      189.815 1 2 0 100 -602.62 1.86686
195      189.815 1 2 0 100 -602.62 1.04382
196      189.815 1 2 0 100 -602.62 0.220781
197      189.815 1 2 0 100 -602.62 5.68093
198      189.815 1 2 0 100 -602.62 4.85789
199      189.815 1 2 0 100 -602.62 4.03485
200      189.815 1 2 0 100 -602.62 3.21181
201      189.815 1 2 0 100 -550.218 0
202      189.815 1 2 0 100 -550.218 3.07308
203      189.815 1 2 0 100 -550.218 6.14615
204      189.815 1 2 0 100 -550.218 2.93605
205      189.815 1 2 0 100 -550.218 6.00912
206      189.815 1 2 0 100 -550.218 2.79901
207      189.815 1 2 0 100 -550.218 5.87209
208      189.815 1 2 0 100 -550.218 2.66198
209      189.815 1 2 0 100 -550.218 5.73506
210      189.815 1 2 0 100 -550.218 2.52495
211      189.815 1 2 0 100 -550.218 5.59803
212      189.815 1 2 0 100 -550.218 2.38792
213      189.815 1 2 0 100 -550.218 5.461
214      189.815 1 2 0 100 -550.218 2.25089
215      189.815 1 2 0 100 -550.218 5.32397
216      189.815 1 2 0 100 -550.218 2.11386
217      189.815 1 2 0 100 -550.218 5.18693
218      189.815 1 2 0 100 -550.218 1.97683
219      189.815 1 2 0 100 -550.218 5.0499
220      189.815 1 2 0 100 -550.218 1.83979
221      189.815 1 2 0 100 -497.816 0
222      189.815 1 2 0 100 -497.816 0.686008
223      189.815 1 2 0 100 -497.816 1.37202
224      189.815 1 2 0 100 -497.816 2.05802
225      189.815 1 2 0 100 -497.816 2.74403
226      189.815 1 2 0 100 -497.816 3.43004
227      189.815 1 2 0 100 -497.816 4.11605
228      189.815 1 2 0 100 -497.816 4.80205
229      189.815 1 2 0 100 -497.816 5.48806
230      189.815 1 2 0 100 -497.816 6.17407
231      189.815 1 2 0 100 -497.816 0.576893
232      189.815 1 2 0 100 -497.816 1.2629
233      189.815 1 2 0 100 -497.816 1.94891
234      189.815 1 2 0 100 -497.816 2.63492
235      189.815 1 2 0 100 -497.816 3.32092
236      189.815 1 2 0 100 -497.816 4.00693
237      189.815 1 2 0 100 -497.816 4.69294
238      189.815 1 2 0 100 -497.816 5.37895
239      189.815 1 2 0 100 -497.816 6.06496
240      189.815 1 2 0 100 -497.816 0.467778
241      189.815 1 2 0 100 -445.415 0
242      189.815 1 2 0 100 -445.415 4.58212
243      189.815 1 2 0 100 -445.415 2.88106
244      189.815 1 2 0 100 -445.415 1.18
245      189.815 1 2 0 100 -445.415 5.76213
246      189.815 1 2 0 100 -445.415 4.06106
247      189.815 1 2 0 100 -445.415 2.36
248      189.815 1 2 0 100 -445.415 0.658942
249      189.815 1 2 0 100 -445.415 5.24107
250      189.815 1 2 0 100 -445.415 3.54
251      189.815 1 2 0 100 -445.415 1.83894
252      189.815 1 2 0 100 -445.415 0.137882
253      189.815 1 2 0 100 -445.415 4.72001
254      189.815 1 2 0 100 -445.415 3.01894
255      189.815 1 2 0 100 -445.415 1.31788
256      189.815 1 2 0 100 -445.415 5.90001
257      189.815 1 2 0 100 -445.415 4.19895
258      189.815 1 2 0 100 -445.415 2.49789
259      189.815 1 2 0 100 -445.415 0.796824
260      189.815 1 2 0 100 -445.415 5.37895
261      189.815 1 2 0 100 -393.013 0
262      189.815 1 2 0 100 -393.013 2.19505
263      189.815 1 2 0 100 -393.013 4.39011
264      189.815 1 2 0 100 -393.013 0.30198
265      189.815 1 2 0 100 -393.013 2.49703
266      189.815 1 2 0 100 -393.013 4.69209
267      189.815 1 2 0 100 -393.013 0.603959
268      189.815 1 2 0 100 -393.013 2.79901
269      189.815 1 2 0 100 -393.013 4.99407
270      189.815 1 2 0 100 -393.013 0.905939
271      189.815 1 2 0 100 -393.013 3.10099
272      189.815 1 2 0 100 -393.013 5.29605
273      189.815 1 2 0 100 -393.013 1.20792
274      189.815 1 2 0 100 -393.013 3.40297
275      189.815 1 2 0 100 -393.013 5.59803
276      189.815 1 2 0 100 -393.013 1.5099
277      189.815 1 2 0 100 -393.013 3.70495
278      189.815 1 2 0 100 -393.013 5.90001
279      189.815 1 2 0 100 -393.013 1.81188
280      189.815 1 2 0 100 -393.013 4.00693
281      189.815 1 2 0 100 -340.611 0
282      189.815 1 2 0 100 -340.611 6.09117
283      189.815 1 2 0 100 -340.611 5.89916
284      189.815 1 2 0 100 -340.611 5.70714
285      189.815 1 2 0 100 -340.611 5.51513
286      189.815 1 2 0 100 -340.611 5.32311
287      189.815 1 2 0 100 -340.611 5.1311
288      189.815 1 2 0 100 -340.611 4.93909
289      189.815 1 2 0 100 -340.611 4.74707
290      189.815 1 2 0 100 -340.611 4.55506
291      189.815 1 2 0 100 -340.611 4.36304
292      189.815 1 2 0 100 -340.611 4.17103
293      189.815 1 2 0 100 -340.611 3.97902
294      189.815 1 2 0 100 -340.611 3.787
295      189.815 1 2 0 100 -340.611 3.59499
296      189.815 1 2 0 100 -340.611 3.40297
297      189.815 1 2 0 100 -340.611 3.21096
298      189.815 1 2 0 100 -340.611 3.01894
299      189.815 1 2 0 100 -340.611 2.82693
300      189.815 1 2 0 100 -340.611 2.63492
301      189.815 1 2 0 100 -288.209 0
302      189.815 1 2 0 100 -288.209 3.7041
303      189.815 1 2 0 100 -288.209 1.12502
304      189.815 1 2 0 100 -288.209 4.82912
305      189.815 1 2 0 100 -288.209 2.25004
306      189.815 1 2 0 100 -288.209 5.95414
307      189.815 1 2 0 100 -288.209 3.37506
308      189.815 1 2 0 100 -288.209 0.795973
309      189.815 1 2 0 100 -288.209 4.50008
310      189.815 1 2 0 100 -288.209 1.92099
311      189.815 1 2 0 100 -288.209 5.62509
312      189.815 1 2 0 100 -288.209 3.04601
313      189.815 1 2 0 100 -288.209 0.466928
314      189.815 1 2 0 100 -288.209 4.17103
315      189.815 1 2 0 100 -288.209 1.59195
316      189.815 1 2 0 100 -288.209 5.29605
317      189.815 1 2 0 100 -288.209 2.71697
318      189.815 1 2 0 100 -288.209 0.137882
319      189.815 1 2 0 100 -288.209 3.84198
320      189.815 1 2 0 100 -288.209 1.2629
321      189.815 1 2 0 100 -235.808 0
322      189.815 1 2 0 100 -235.808 1.31703
323      189.815 1 2 0 100 -235.808 2.63407
324      189.815 1 2 0 100 -235.808 3.9511
325      189.815 1 2 0 100 -235.808 5.26813
326      189.815 1 2 0 100 -235.808 0.30198
327      189.815 1 2 0 100 -235.808 1.61901
328      189.815 1 2 0 100 -235.808 2.93605
329      189.815 1 2 0 100 -235.808 4.25308
330      189.815 1 2 0 100 -235.808 5.57011
331      189.815 1 2 0 100 -235.808 0.603959
332      189.815 1 2 0 100 -235.808 1.92099
333      189.815 1 2 0 100 -235.808 3.23803
334      189.815 1 2 0 100 -235.808 4.55506
335      189.815 1 2 0 100 -235.808 5.87209
336      189.815 1 2 0 100 -235.808 0.905939
337      189.815 1 2 0 100 -235.808 2.22297
338      189.815 1 2 0 100 -235.808 3.54
339      189.815 1 2 0 100 -235.808 4.85704
340      189.815 1 2 0 100 -235.808 6.17407
341      189.815 1 2 0 100 -183.406 0
342      189.815 1 2 0 100 -183.406 5.21315
343      189.815 1 2 0 100 -183.406 4.14311
344      189.815 1 2 0 100 -183.406 3.07308
345      189.815 1 2 0 100 -183.406 2.00304
346      189.815 1 2 0 100 -183.406 0.933005
347      189.815 1 2 0 100 -183.406 6.14615
348      189.815 1 2 0 100 -183.406 5.07612
349      189.815 1 2 0 100 -183.406 4.00608
350      189.815 1 2 0 100 -183.406 2.93605
351      189.815 1 2 0 100 -183.406 1.86601
352      189.815 1 2 0 100 -183.406 0.795973
353      189.815 1 2 0 100 -183.406 6.00912
354      189.815 1 2 0 100 -183.406 4.93909
355      189.815 1 2 0 100 -183.406 3.86905
356      189.815 1 2 0 100 -183.406 2.79901
357      189.815 1 2 0 100 -183.406 1.72898
358      189.815 1 2 0 100 -183.406 0.658942
359      189.815 1 2 0 100 -183.406 5.87209
360      189.815 1 2 0 100 -183.406 4.80205
361      189.815 1 2 0 100 -131.004 0
362      189.815 1 2 0 100 -131.004 2.82608
363      189.815 1 2 0 100 -131.004 5.65216
364      189.815 1 2 0 100 -131.004 2.19505
365      189.815 1 2 0 100 -131.004 5.02114
366      189.815 1 2 0 100 -131.004 1.56403
367      189.815 1 2 0 100 -131.004 4.39011
368      189.815 1 2 0 100 -131.004 0.933005
369      189.815 1 2 0 100 -131.004 3.75908
370      189.815 1 2 0 100 -131.004 0.30198
371      189.815 1 2 0 100 -131.004 3.12806
372      189.815 1 2 0 100 -131.004 5.95414
373      189.815 1 2 0 100 -131.004 2.49703
374      189.815 1 2 0 100 -131.004 5.32311
375      189.815 1 2 0 100 -131.004 1.86601
376      189.815 1 2 0 100 -131.004 4.69209
377      189.815 1 2 0 100 -131.004 1.23498
378      189.815 1 2 0 100 -131.004 4.06106
379      189.815 1 2 0 100 -131.004 0.603959
380      189.815 1 2 0 100 -131.004 3.43004
381      189.815 1 2 0 100 -78.6026 0
382      189.815 1 2 0 100 -78.6026 0.439011
383      189.815 1 2 0 100 -78.6026 0.878022
384      189.815 1 2 0 100 -78.6026 1.31703
385      189.815 1 2 0 100 -78.6026 1.75604
386      189.815 1 2 0 100 -78.6026 2.19505
387      189.815 1 2 0 100 -78.6026 2.63407
388      189.815 1 2 0 100 -78.6026 3.07308
389      189.815 1 2 0 100 -78.6026 3.51209
390      189.815 1 2 0 100 -78.6026 3.9511
391      189.815 1 2 0 100 -78.6026 4.39011
392      189.815 1 2 0 100 -78.6026 4.82912
393      189.815 1 2 0 100 -78.6026 5.26813
394      189.815 1 2 0 100 -78.6026 5.70714
395      189.815 1 2 0 100 -78.6026 6.14615
396      189.815 1 2 0 100 -78.6026 0.30198
397      189.815 1 2 0 100 -78.6026 0.740991
398      189.815 1 2 0 100 -78.6026 1.18
399      189.815 1 2 0 100 -78.6026 1.61901
400      189.815 1 2 0 100 -78.6026 2.05802
401      189.815 1 2 0 100 -26.2009 0
402      189.815 1 2 0 100 -26.2009 4.33513
403      189.815 1 2 0 100 -26.2009 2.38707
404      189.815 1 2 0 100 -26.2009 0.439011
405      189.815 1 2 0 100 -26.2009 4.77414
406      189.815 1 2 0 100 -26.2009 2.82608
407      189.815 1 2 0 100 -26.2009 0.878022
408      189.815 1 2 0 100 -26.2009 5.21315
409      189.815 1 2 0 100 -26.2009 3.26509
410      189.815 1 2 0 100 -26.2009 1.31703
411      189.815 1 2 0 100 -26.2009 5.65216
412      189.815 1 2 0 100 -26.2009 3.7041
413      189.815 1 2 0 100 -26.2009 1.75604
414      189.815 1 2 0 100 -26.2009 6.09117
415      189.815 1 2 0 100 -26.2009 4.14311
416      189.815 1 2 0 100 -26.2009 2.19505
417      189.815 1 2 0 100 -26.2009 0.246997
418      189.815 1 2 0 100 -26.2009 4.58212
419      189.815 1 2 0 100 -26.2009 2.63407
420      189.815 1 2 0 100 -26.2009 0.686008
421      189.815 1 2 0 100 26.2009 0
422      189.815 1 2 0 100 26.2009 1.94806
423      189.815 1 2 0 100 26.2009 3.89612
424      189.815 1 2 0 100 26.2009 5.84417
425      189.815 1 2 0 100 26.2009 1.50905
426      189.815 1 2 0 100 26.2009 3.45711
427      189.815 1 2 0 100 26.2009 5.40516
428      189.815 1 2 0 100 26.2009 1.07004
429      189.815 1 2 0 100 26.2009 3.01809
430      189.815 1 2 0 100 26.2009 4.96615
431      189.815 1 2 0 100 26.2009 0.631025
432      189.815 1 2 0 100 26.2009 2.57908
433      189.815 1 2 0 100 26.2009 4.52714
434      189.815 1 2 0 100 26.2009 0.192014
435      189.815 1 2 0 100 26.2009 2.14007
436      189.815 1 2 0 100 26.2009 4.08813
437      189.815 1 2 0 100 26.2009 6.03619
438      189.815 1 2 0 100 26.2009 1.70106
439      189.815 1 2 0 100 26.2009 3.64912
440      189.815 1 2 0 100 26.2009 5.59718
441      189.815 1 2 0 100 78.6026 0
442      189.815 1 2 0 100 78.6026 5.84417
443      189.815 1 2 0 100 78.6026 5.40516
444      189.815 1 2 0 100 78.6026 4.96615
445      189.815 1 2 0 100 78.6026 4.52714
446      189.815 1 2 0 100 78.6026 4.08813
447      189.815 1 2 0 100 78.6026 3.64912
448      189.815 1 2 0 100 78.6026 3.21011
449      189.815 1 2 0 100 78.6026 2.7711
450      189.815 1 2 0 100 78.6026 2.33209
451      189.815 1 2 0 100 78.6026 1.89308
452      189.815 1 2 0 100 78.6026 1.45406
453      189.815 1 2 0 100 78.6026 1.01505
454      189.815 1 2 0 100 78.6026 0.576042
455      189.815 1 2 0 100 78.6026 0.137031
456      189.815 1 2 0 100 78.6026 5.98121
457      189.815 1 2 0 100 78.6026 5.54219
458      189.815 1 2 0 100 78.6026 5.10318
459      189.815 1 2 0 100 78.6026 4.66417
460      189.815 1 2 0 100 78.6026 4.22516
461      189.815 1 2 0 100 131.004 0
