# Pulseq sequence file
# Created by MATLAB mr toolbox

# Created for Pulseq-CEST
# https://pulseq-cest.github.io/
# Created by: Kai Herz
# Created at: 10-Sep-2021 11:08:29

[VERSION]
major 1
minor 4
revision 0

[DEFINITIONS]
AdcRasterTime 1e-07 
B0 3 
B1cwpe 2.02979811 
BlockDurationRaster 1e-05 
DCsat 0.555555556 
GradientRasterTime 1e-05 
M0_offset -300 
RadiofrequencyRasterTime 1e-06 
Trec 2.4 
Trec_M0 12 
Tsat 1.76 
n_pulses 20 
num_meas 41 
offsets_ppm -300 -8 -7.58974359 -7.17948718 -6.76923077 -6.35897436 -5.94871795 -5.53846154 -5.12820513 -4.71794872 -4.30769231 -3.8974359 -3.48717949 -3.07692308 -2.66666667 -2.25641026 -1.84615385 -1.43589744 -1.02564103 -0.615384615 -0.205128205 0.205128205 0.615384615 1.02564103 1.43589744 1.84615385 2.25641026 2.66666667 3.07692308 3.48717949 3.8974359 4.30769231 4.71794872 5.12820513 5.53846154 5.94871795 6.35897436 6.76923077 7.17948718 7.58974359 8 
seq_id_string APTw_3T_example 
td 0.04 
tp 0.05 

# Format of blocks:
# NUM DUR RF  GX  GY  GZ  ADC  EXT
[BLOCKS]
   1 1200000   0   0   0   0  0  0
   2 5013   1   0   0   0  0  0
   3 4000   0   0   0   0  0  0
   4 5013   2   0   0   0  0  0
   5 4000   0   0   0   0  0  0
   6 5013   3   0   0   0  0  0
   7 4000   0   0   0   0  0  0
   8 5013   4   0   0   0  0  0
   9 4000   0   0   0   0  0  0
  10 5013   5   0   0   0  0  0
  11 4000   0   0   0   0  0  0
  12 5013   6   0   0   0  0  0
  13 4000   0   0   0   0  0  0
  14 5013   7   0   0   0  0  0
  15 4000   0   0   0   0  0  0
  16 5013   8   0   0   0  0  0
  17 4000   0   0   0   0  0  0
  18 5013   9   0   0   0  0  0
  19 4000   0   0   0   0  0  0
  20 5013  10   0   0   0  0  0
  21 4000   0   0   0   0  0  0
  22 5013  11   0   0   0  0  0
  23 4000   0   0   0   0  0  0
  24 5013  12   0   0   0  0  0
  25 4000   0   0   0   0  0  0
  26 5013  13   0   0   0  0  0
  27 4000   0   0   0   0  0  0
  28 5013  14   0   0   0  0  0
  29 4000   0   0   0   0  0  0
  30 5013  15   0   0   0  0  0
  31 4000   0   0   0   0  0  0
  32 5013  16   0   0   0  0  0
  33 4000   0   0   0   0  0  0
  34 5013  17   0   0   0  0  0
  35 4000   0   0   0   0  0  0
  36 5013  18   0   0   0  0  0
  37 4000   0   0   0   0  0  0
  38 5013  19   0   0   0  0  0
  39 4000   0   0   0   0  0  0
  40 5013  20   0   0   0  0  0
  41 650   0   1   1   1  0  0
  42 100   0   0   0   0  1  0
  43 240000   0   0   0   0  0  0
  44 5013  21   0   0   0  0  0
  45 4000   0   0   0   0  0  0
  46 5013  22   0   0   0  0  0
  47 4000   0   0   0   0  0  0
  48 5013  23   0   0   0  0  0
  49 4000   0   0   0   0  0  0
  50 5013  24   0   0   0  0  0
  51 4000   0   0   0   0  0  0
  52 5013  25   0   0   0  0  0
  53 4000   0   0   0   0  0  0
  54 5013  26   0   0   0  0  0
  55 4000   0   0   0   0  0  0
  56 5013  27   0   0   0  0  0
  57 4000   0   0   0   0  0  0
  58 5013  28   0   0   0  0  0
  59 4000   0   0   0   0  0  0
  60 5013  29   0   0   0  0  0
  61 4000   0   0   0   0  0  0
  62 5013  30   0   0   0  0  0
  63 4000   0   0   0   0  0  0
  64 5013  31   0   0   0  0  0
  65 4000   0   0   0   0  0  0
  66 5013  32   0   0   0  0  0
  67 4000   0   0   0   0  0  0
  68 5013  33   0   0   0  0  0
  69 4000   0   0   0   0  0  0
  70 5013  34   0   0   0  0  0
  71 4000   0   0   0   0  0  0
  72 5013  35   0   0   0  0  0
  73 4000   0   0   0   0  0  0
  74 5013  36   0   0   0  0  0
  75 4000   0   0   0   0  0  0
  76 5013  37   0   0   0  0  0
  77 4000   0   0   0   0  0  0
  78 5013  38   0   0   0  0  0
  79 4000   0   0   0   0  0  0
  80 5013  39   0   0   0  0  0
  81 4000   0   0   0   0  0  0
  82 5013  40   0   0   0  0  0
  83 650   0   1   1   1  0  0
  84 100   0   0   0   0  1  0
  85 240000   0   0   0   0  0  0
  86 5013  41   0   0   0  0  0
  87 4000   0   0   0   0  0  0
  88 5013  42   0   0   0  0  0
  89 4000   0   0   0   0  0  0
  90 5013  43   0   0   0  0  0
  91 4000   0   0   0   0  0  0
  92 5013  44   0   0   0  0  0
  93 4000   0   0   0   0  0  0
  94 5013  45   0   0   0  0  0
  95 4000   0   0   0   0  0  0
  96 5013  46   0   0   0  0  0
  97 4000   0   0   0   0  0  0
  98 5013  47   0   0   0  0  0
  99 4000   0   0   0   0  0  0
 100 5013  48   0   0   0  0  0
 101 4000   0   0   0   0  0  0
 102 5013  49   0   0   0  0  0
 103 4000   0   0   0   0  0  0
 104 5013  50   0   0   0  0  0
 105 4000   0   0   0   0  0  0
 106 5013  51   0   0   0  0  0
 107 4000   0   0   0   0  0  0
 108 5013  52   0   0   0  0  0
 109 4000   0   0   0   0  0  0
 110 5013  53   0   0   0  0  0
 111 4000   0   0   0   0  0  0
 112 5013  54   0   0   0  0  0
 113 4000   0   0   0   0  0  0
 114 5013  55   0   0   0  0  0
 115 4000   0   0   0   0  0  0
 116 5013  56   0   0   0  0  0
 117 4000   0   0   0   0  0  0
 118 5013  57   0   0   0  0  0
 119 4000   0   0   0   0  0  0
 120 5013  58   0   0   0  0  0
 121 4000   0   0   0   0  0  0
 122 5013  59   0   0   0  0  0
 123 4000   0   0   0   0  0  0
 124 5013  60   0   0   0  0  0
 125 650   0   1   1   1  0  0
 126 100   0   0   0   0  1  0
 127 240000   0   0   0   0  0  0
 128 5013  61   0   0   0  0  0
 129 4000   0   0   0   0  0  0
 130 5013  62   0   0   0  0  0
 131 4000   0   0   0   0  0  0
 132 5013  63   0   0   0  0  0
 133 4000   0   0   0   0  0  0
 134 5013  64   0   0   0  0  0
 135 4000   0   0   0   0  0  0
 136 5013  65   0   0   0  0  0
 137 4000   0   0   0   0  0  0
 138 5013  66   0   0   0  0  0
 139 4000   0   0   0   0  0  0
 140 5013  67   0   0   0  0  0
 141 4000   0   0   0   0  0  0
 142 5013  68   0   0   0  0  0
 143 4000   0   0   0   0  0  0
 144 5013  69   0   0   0  0  0
 145 4000   0   0   0   0  0  0
 146 5013  70   0   0   0  0  0
 147 4000   0   0   0   0  0  0
 148 5013  71   0   0   0  0  0
 149 4000   0   0   0   0  0  0
 150 5013  72   0   0   0  0  0
 151 4000   0   0   0   0  0  0
 152 5013  73   0   0   0  0  0
 153 4000   0   0   0   0  0  0
 154 5013  74   0   0   0  0  0
 155 4000   0   0   0   0  0  0
 156 5013  75   0   0   0  0  0
 157 4000   0   0   0   0  0  0
 158 5013  76   0   0   0  0  0
 159 4000   0   0   0   0  0  0
 160 5013  77   0   0   0  0  0
 161 4000   0   0   0   0  0  0
 162 5013  78   0   0   0  0  0
 163 4000   0   0   0   0  0  0
 164 5013  79   0   0   0  0  0
 165 4000   0   0   0   0  0  0
 166 5013  80   0   0   0  0  0
 167 650   0   1   1   1  0  0
 168 100   0   0   0   0  1  0
 169 240000   0   0   0   0  0  0
 170 5013  81   0   0   0  0  0
 171 4000   0   0   0   0  0  0
 172 5013  82   0   0   0  0  0
 173 4000   0   0   0   0  0  0
 174 5013  83   0   0   0  0  0
 175 4000   0   0   0   0  0  0
 176 5013  84   0   0   0  0  0
 177 4000   0   0   0   0  0  0
 178 5013  85   0   0   0  0  0
 179 4000   0   0   0   0  0  0
 180 5013  86   0   0   0  0  0
 181 4000   0   0   0   0  0  0
 182 5013  87   0   0   0  0  0
 183 4000   0   0   0   0  0  0
 184 5013  88   0   0   0  0  0
 185 4000   0   0   0   0  0  0
 186 5013  89   0   0   0  0  0
 187 4000   0   0   0   0  0  0
 188 5013  90   0   0   0  0  0
 189 4000   0   0   0   0  0  0
 190 5013  91   0   0   0  0  0
 191 4000   0   0   0   0  0  0
 192 5013  92   0   0   0  0  0
 193 4000   0   0   0   0  0  0
 194 5013  93   0   0   0  0  0
 195 4000   0   0   0   0  0  0
 196 5013  94   0   0   0  0  0
 197 4000   0   0   0   0  0  0
 198 5013  95   0   0   0  0  0
 199 4000   0   0   0   0  0  0
 200 5013  96   0   0   0  0  0
 201 4000   0   0   0   0  0  0
 202 5013  97   0   0   0  0  0
 203 4000   0   0   0   0  0  0
 204 5013  98   0   0   0  0  0
 205 4000   0   0   0   0  0  0
 206 5013  99   0   0   0  0  0
 207 4000   0   0   0   0  0  0
 208 5013 100   0   0   0  0  0
 209 650   0   1   1   1  0  0
 210 100   0   0   0   0  1  0
 211 240000   0   0   0   0  0  0
 212 5013 101   0   0   0  0  0
 213 4000   0   0   0   0  0  0
 214 5013 102   0   0   0  0  0
 215 4000   0   0   0   0  0  0
 216 5013 103   0   0   0  0  0
 217 4000   0   0   0   0  0  0
 218 5013 104   0   0   0  0  0
 219 4000   0   0   0   0  0  0
 220 5013 105   0   0   0  0  0
 221 4000   0   0   0   0  0  0
 222 5013 106   0   0   0  0  0
 223 4000   0   0   0   0  0  0
 224 5013 107   0   0   0  0  0
 225 4000   0   0   0   0  0  0
 226 5013 108   0   0   0  0  0
 227 4000   0   0   0   0  0  0
 228 5013 109   0   0   0  0  0
 229 4000   0   0   0   0  0  0
 230 5013 110   0   0   0  0  0
 231 4000   0   0   0   0  0  0
 232 5013 111   0   0   0  0  0
 233 4000   0   0   0   0  0  0
 234 5013 112   0   0   0  0  0
 235 4000   0   0   0   0  0  0
 236 5013 113   0   0   0  0  0
 237 4000   0   0   0   0  0  0
 238 5013 114   0   0   0  0  0
 239 4000   0   0   0   0  0  0
 240 5013 115   0   0   0  0  0
 241 4000   0   0   0   0  0  0
 242 5013 116   0   0   0  0  0
 243 4000   0   0   0   0  0  0
 244 5013 117   0   0   0  0  0
 245 4000   0   0   0   0  0  0
 246 5013 118   0   0   0  0  0
 247 4000   0   0   0   0  0  0
 248 5013 119   0   0   0  0  0
 249 4000   0   0   0   0  0  0
 250 5013 120   0   0   0  0  0
 251 650   0   1   1   1  0  0
 252 100   0   0   0   0  1  0
 253 240000   0   0   0   0  0  0
 254 5013 121   0   0   0  0  0
 255 4000   0   0   0   0  0  0
 256 5013 122   0   0   0  0  0
 257 4000   0   0   0   0  0  0
 258 5013 123   0   0   0  0  0
 259 4000   0   0   0   0  0  0
 260 5013 124   0   0   0  0  0
 261 4000   0   0   0   0  0  0
 262 5013 125   0   0   0  0  0
 263 4000   0   0   0   0  0  0
 264 5013 126   0   0   0  0  0
 265 4000   0   0   0   0  0  0
 266 5013 127   0   0   0  0  0
 267 4000   0   0   0   0  0  0
 268 5013 128   0   0   0  0  0
 269 4000   0   0   0   0  0  0
 270 5013 129   0   0   0  0  0
 271 4000   0   0   0   0  0  0
 272 5013 130   0   0   0  0  0
 273 4000   0   0   0   0  0  0
 274 5013 131   0   0   0  0  0
 275 4000   0   0   0   0  0  0
 276 5013 132   0   0   0  0  0
 277 4000   0   0   0   0  0  0
 278 5013 133   0   0   0  0  0
 279 4000   0   0   0   0  0  0
 280 5013 134   0   0   0  0  0
[RF]
1      189.803 1 2 3 100 -38318.8 0
2      189.803 1 2 3 100 -38318.8 2.11271
3      189.803 1 2 3 100 -38318.8 4.22542
4      189.803 1 2 3 100 -38318.8 0.0549402
5      189.803 1 2 3 100 -38318.8 2.16765
6      189.803 1 2 3 100 -38318.8 4.28036
7      189.803 1 2 3 100 -38318.8 0.10988
8      189.803 1 2 3 100 -38318.8 2.22259
9      189.803 1 2 3 100 -38318.8 4.3353
10      189.803 1 2 3 100 -38318.8 0.164821
11      189.803 1 2 3 100 -38318.8 2.27753
12      189.803 1 2 3 100 -38318.8 4.39024
13      189.803 1 2 3 100 -38318.8 0.219761
14      189.803 1 2 3 100 -38318.8 2.33247
15      189.803 1 2 3 100 -38318.8 4.44518
16      189.803 1 2 3 100 -38318.8 0.274701
17      189.803 1 2 3 100 -38318.8 2.38741
18      189.803 1 2 3 100 -38318.8 4.50012
19      189.803 1 2 3 100 -38318.8 0.329641
20      189.803 1 2 3 100 -38318.8 2.44235
21      189.803 1 2 3 100 -1021.83 0
22      189.803 1 2 3 100 -1021.83 4.99911
23      189.803 1 2 3 100 -1021.83 3.71504
24      189.803 1 2 3 100 -1021.83 2.43096
25      189.803 1 2 3 100 -1021.83 1.14689
26      189.803 1 2 3 100 -1021.83 6.146
27      189.803 1 2 3 100 -1021.83 4.86193
28      189.803 1 2 3 100 -1021.83 3.57785
29      189.803 1 2 3 100 -1021.83 2.29378
30      189.803 1 2 3 100 -1021.83 1.0097
31      189.803 1 2 3 100 -1021.83 6.00882
32      189.803 1 2 3 100 -1021.83 4.72474
33      189.803 1 2 3 100 -1021.83 3.44067
34      189.803 1 2 3 100 -1021.83 2.15659
35      189.803 1 2 3 100 -1021.83 0.87252
36      189.803 1 2 3 100 -1021.83 5.87163
37      189.803 1 2 3 100 -1021.83 4.58756
38      189.803 1 2 3 100 -1021.83 3.30348
39      189.803 1 2 3 100 -1021.83 2.01941
40      189.803 1 2 3 100 -1021.83 0.735336
41      189.803 1 2 3 100 -969.432 0
42      189.803 1 2 3 100 -969.432 5.06496
43      189.803 1 2 3 100 -969.432 3.84674
44      189.803 1 2 3 100 -969.432 2.62851
45      189.803 1 2 3 100 -969.432 1.41029
46      189.803 1 2 3 100 -969.432 0.192065
47      189.803 1 2 3 100 -969.432 5.25703
48      189.803 1 2 3 100 -969.432 4.0388
49      189.803 1 2 3 100 -969.432 2.82058
50      189.803 1 2 3 100 -969.432 1.60235
51      189.803 1 2 3 100 -969.432 0.38413
52      189.803 1 2 3 100 -969.432 5.44909
53      189.803 1 2 3 100 -969.432 4.23087
54      189.803 1 2 3 100 -969.432 3.01264
55      189.803 1 2 3 100 -969.432 1.79442
56      189.803 1 2 3 100 -969.432 0.576196
57      189.803 1 2 3 100 -969.432 5.64116
58      189.803 1 2 3 100 -969.432 4.42293
59      189.803 1 2 3 100 -969.432 3.20471
60      189.803 1 2 3 100 -969.432 1.98648
61      189.803 1 2 3 100 -917.03 0
62      189.803 1 2 3 100 -917.03 5.13081
63      189.803 1 2 3 100 -917.03 3.97844
64      189.803 1 2 3 100 -917.03 2.82606
65      189.803 1 2 3 100 -917.03 1.67369
66      189.803 1 2 3 100 -917.03 0.521315
67      189.803 1 2 3 100 -917.03 5.65213
68      189.803 1 2 3 100 -917.03 4.49975
69      189.803 1 2 3 100 -917.03 3.34738
70      189.803 1 2 3 100 -917.03 2.195
71      189.803 1 2 3 100 -917.03 1.04263
72      189.803 1 2 3 100 -917.03 6.17344
73      189.803 1 2 3 100 -917.03 5.02107
74      189.803 1 2 3 100 -917.03 3.86869
75      189.803 1 2 3 100 -917.03 2.71632
76      189.803 1 2 3 100 -917.03 1.56394
77      189.803 1 2 3 100 -917.03 0.411571
78      189.803 1 2 3 100 -917.03 5.54238
79      189.803 1 2 3 100 -917.03 4.39001
80      189.803 1 2 3 100 -917.03 3.23763
81      189.803 1 2 3 100 -864.628 0
82      189.803 1 2 3 100 -864.628 5.19666
83      189.803 1 2 3 100 -864.628 4.11014
84      189.803 1 2 3 100 -864.628 3.02361
85      189.803 1 2 3 100 -864.628 1.93709
86      189.803 1 2 3 100 -864.628 0.850565
87      189.803 1 2 3 100 -864.628 6.04723
88      189.803 1 2 3 100 -864.628 4.9607
89      189.803 1 2 3 100 -864.628 3.87418
90      189.803 1 2 3 100 -864.628 2.78765
91      189.803 1 2 3 100 -864.628 1.70113
92      189.803 1 2 3 100 -864.628 0.614605
93      189.803 1 2 3 100 -864.628 5.81127
94      189.803 1 2 3 100 -864.628 4.72474
95      189.803 1 2 3 100 -864.628 3.63822
96      189.803 1 2 3 100 -864.628 2.55169
97      189.803 1 2 3 100 -864.628 1.46517
98      189.803 1 2 3 100 -864.628 0.378646
99      189.803 1 2 3 100 -864.628 5.57531
100      189.803 1 2 3 100 -864.628 4.48878
101      189.803 1 2 3 100 -812.227 0
102      189.803 1 2 3 100 -812.227 5.26251
103      189.803 1 2 3 100 -812.227 4.24184
104      189.803 1 2 3 100 -812.227 3.22116
105      189.803 1 2 3 100 -812.227 2.20049
106      189.803 1 2 3 100 -812.227 1.17981
107      189.803 1 2 3 100 -812.227 0.15914
108      189.803 1 2 3 100 -812.227 5.42165
109      189.803 1 2 3 100 -812.227 4.40098
110      189.803 1 2 3 100 -812.227 3.3803
111      189.803 1 2 3 100 -812.227 2.35963
112      189.803 1 2 3 100 -812.227 1.33895
113      189.803 1 2 3 100 -812.227 0.31828
114      189.803 1 2 3 100 -812.227 5.58079
115      189.803 1 2 3 100 -812.227 4.56012
116      189.803 1 2 3 100 -812.227 3.53944
117      189.803 1 2 3 100 -812.227 2.51877
118      189.803 1 2 3 100 -812.227 1.49809
119      189.803 1 2 3 100 -812.227 0.477421
120      189.803 1 2 3 100 -812.227 5.73993
121      189.803 1 2 3 100 -759.825 0
122      189.803 1 2 3 100 -759.825 5.32836
123      189.803 1 2 3 100 -759.825 4.37354
124      189.803 1 2 3 100 -759.825 3.41871
125      189.803 1 2 3 100 -759.825 2.46389
126      189.803 1 2 3 100 -759.825 1.50906
127      189.803 1 2 3 100 -759.825 0.55424
128      189.803 1 2 3 100 -759.825 5.8826
129      189.803 1 2 3 100 -759.825 4.92778
130      189.803 1 2 3 100 -759.825 3.97295
131      189.803 1 2 3 100 -759.825 3.01813
132      189.803 1 2 3 100 -759.825 2.0633
133      189.803 1 2 3 100 -759.825 1.10848
134      189.803 1 2 3 100 -759.825 0.153656
135      189.803 1 2 3 100 -759.825 5.48202
136      189.803 1 2 3 100 -759.825 4.52719
137      189.803 1 2 3 100 -759.825 3.57237
138      189.803 1 2 3 100 -759.825 2.61754
139      189.803 1 2 3 100 -759.825 1.66272
140      189.803 1 2 3 100 -759.825 0.707895
141      189.803 1 2 3 100 -707.423 0
142      189.803 1 2 3 100 -707.423 5.39421
143      189.803 1 2 3 100 -707.423 4.50524
144      189.803 1 2 3 100 -707.423 3.61626
145      189.803 1 2 3 100 -707.423 2.72729
146      189.803 1 2 3 100 -707.423 1.83831
147      189.803 1 2 3 100 -707.423 0.94934
148      189.803 1 2 3 100 -707.423 0.0603653
149      189.803 1 2 3 100 -707.423 5.45458
150      189.803 1 2 3 100 -707.423 4.5656
151      189.803 1 2 3 100 -707.423 3.67663
152      189.803 1 2 3 100 -707.423 2.78765
153      189.803 1 2 3 100 -707.423 1.89868
154      189.803 1 2 3 100 -707.423 1.0097
155      189.803 1 2 3 100 -707.423 0.120731
156      189.803 1 2 3 100 -707.423 5.51494
157      189.803 1 2 3 100 -707.423 4.62597
158      189.803 1 2 3 100 -707.423 3.73699
159      189.803 1 2 3 100 -707.423 2.84802
160      189.803 1 2 3 100 -707.423 1.95904
161      189.803 1 2 3 100 -655.022 0
162      189.803 1 2 3 100 -655.022 5.46006
163      189.803 1 2 3 100 -655.022 4.63694
164      189.803 1 2 3 100 -655.022 3.81381
165      189.803 1 2 3 100 -655.022 2.99069
166      189.803 1 2 3 100 -655.022 2.16756
167      189.803 1 2 3 100 -655.022 1.34444
168      189.803 1 2 3 100 -655.022 0.521315
169      189.803 1 2 3 100 -655.022 5.98138
170      189.803 1 2 3 100 -655.022 5.15825
171      189.803 1 2 3 100 -655.022 4.33513
172      189.803 1 2 3 100 -655.022 3.512
173      189.803 1 2 3 100 -655.022 2.68888
174      189.803 1 2 3 100 -655.022 1.86575
175      189.803 1 2 3 100 -655.022 1.04263
176      189.803 1 2 3 100 -655.022 0.219505
177      189.803 1 2 3 100 -655.022 5.67957
178      189.803 1 2 3 100 -655.022 4.85644
179      189.803 1 2 3 100 -655.022 4.03332
180      189.803 1 2 3 100 -655.022 3.21019
181      189.803 1 2 3 100 -602.62 0
182      189.803 1 2 3 100 -602.62 5.52591
183      189.803 1 2 3 100 -602.62 4.76864
184      189.803 1 2 3 100 -602.62 4.01136
185      189.803 1 2 3 100 -602.62 3.25409
186      189.803 1 2 3 100 -602.62 2.49681
187      189.803 1 2 3 100 -602.62 1.73954
188      189.803 1 2 3 100 -602.62 0.982265
189      189.803 1 2 3 100 -602.62 0.22499
190      189.803 1 2 3 100 -602.62 5.7509
191      189.803 1 2 3 100 -602.62 4.99363
192      189.803 1 2 3 100 -602.62 4.23635
193      189.803 1 2 3 100 -602.62 3.47908
194      189.803 1 2 3 100 -602.62 2.7218
195      189.803 1 2 3 100 -602.62 1.96453
196      189.803 1 2 3 100 -602.62 1.20725
197      189.803 1 2 3 100 -602.62 0.44998
198      189.803 1 2 3 100 -602.62 5.97589
199      189.803 1 2 3 100 -602.62 5.21862
200      189.803 1 2 3 100 -602.62 4.46134
201      189.803 1 2 3 100 -550.218 0
202      189.803 1 2 3 100 -550.218 5.59176
203      189.803 1 2 3 100 -550.218 4.90034
204      189.803 1 2 3 100 -550.218 4.20891
205      189.803 1 2 3 100 -550.218 3.51749
206      189.803 1 2 3 100 -550.218 2.82606
207      189.803 1 2 3 100 -550.218 2.13464
208      189.803 1 2 3 100 -550.218 1.44321
209      189.803 1 2 3 100 -550.218 0.75179
210      189.803 1 2 3 100 -550.218 0.0603653
211      189.803 1 2 3 100 -550.218 5.65213
212      189.803 1 2 3 100 -550.218 4.9607
213      189.803 1 2 3 100 -550.218 4.26928
214      189.803 1 2 3 100 -550.218 3.57785
215      189.803 1 2 3 100 -550.218 2.88643
216      189.803 1 2 3 100 -550.218 2.195
217      189.803 1 2 3 100 -550.218 1.50358
218      189.803 1 2 3 100 -550.218 0.812155
219      189.803 1 2 3 100 -550.218 0.120731
220      189.803 1 2 3 100 -550.218 5.71249
221      189.803 1 2 3 100 -497.816 0
222      189.803 1 2 3 100 -497.816 5.65761
223      189.803 1 2 3 100 -497.816 5.03204
224      189.803 1 2 3 100 -497.816 4.40646
225      189.803 1 2 3 100 -497.816 3.78089
226      189.803 1 2 3 100 -497.816 3.15531
227      189.803 1 2 3 100 -497.816 2.52974
228      189.803 1 2 3 100 -497.816 1.90416
229      189.803 1 2 3 100 -497.816 1.27859
230      189.803 1 2 3 100 -497.816 0.653015
231      189.803 1 2 3 100 -497.816 0.0274403
232      189.803 1 2 3 100 -497.816 5.68505
233      189.803 1 2 3 100 -497.816 5.05948
234      189.803 1 2 3 100 -497.816 4.4339
235      189.803 1 2 3 100 -497.816 3.80833
236      189.803 1 2 3 100 -497.816 3.18275
237      189.803 1 2 3 100 -497.816 2.55718
238      189.803 1 2 3 100 -497.816 1.9316
239      189.803 1 2 3 100 -497.816 1.30603
240      189.803 1 2 3 100 -497.816 0.680455
241      189.803 1 2 3 100 -445.415 0
242      189.803 1 2 3 100 -445.415 5.72346
243      189.803 1 2 3 100 -445.415 5.16374
244      189.803 1 2 3 100 -445.415 4.60401
245      189.803 1 2 3 100 -445.415 4.04429
246      189.803 1 2 3 100 -445.415 3.48456
247      189.803 1 2 3 100 -445.415 2.92484
248      189.803 1 2 3 100 -445.415 2.36511
249      189.803 1 2 3 100 -445.415 1.80539
250      189.803 1 2 3 100 -445.415 1.24566
251      189.803 1 2 3 100 -445.415 0.68594
252      189.803 1 2 3 100 -445.415 0.126215
253      189.803 1 2 3 100 -445.415 5.84968
254      189.803 1 2 3 100 -445.415 5.28995
255      189.803 1 2 3 100 -445.415 4.73023
256      189.803 1 2 3 100 -445.415 4.1705
257      189.803 1 2 3 100 -445.415 3.61078
258      189.803 1 2 3 100 -445.415 3.05105
259      189.803 1 2 3 100 -445.415 2.49133
260      189.803 1 2 3 100 -445.415 1.9316
261      189.803 1 2 3 100 -393.013 0
262      189.803 1 2 3 100 -393.013 5.78931
263      189.803 1 2 3 100 -393.013 5.29544
264      189.803 1 2 3 100 -393.013 4.80156
265      189.803 1 2 3 100 -393.013 4.30769
266      189.803 1 2 3 100 -393.013 3.81381
267      189.803 1 2 3 100 -393.013 3.31994
268      189.803 1 2 3 100 -393.013 2.82606
269      189.803 1 2 3 100 -393.013 2.33219
270      189.803 1 2 3 100 -393.013 1.83831
271      189.803 1 2 3 100 -393.013 1.34444
272      189.803 1 2 3 100 -393.013 0.850565
273      189.803 1 2 3 100 -393.013 0.35669
274      189.803 1 2 3 100 -393.013 6.146
275      189.803 1 2 3 100 -393.013 5.65213
276      189.803 1 2 3 100 -393.013 5.15825
277      189.803 1 2 3 100 -393.013 4.66438
278      189.803 1 2 3 100 -393.013 4.1705
279      189.803 1 2 3 100 -393.013 3.67663
280      189.803 1 2 3 100 -393.013 3.18275
281      189.803 1 2 3 100 -340.611 0
282      189.803 1 2 3 100 -340.611 5.85516
283      189.803 1 2 3 100 -340.611 5.42714
284      189.803 1 2 3 100 -340.611 4.99911
285      189.803 1 2 3 100 -340.611 4.57109
286      189.803 1 2 3 100 -340.611 4.14306
287      189.803 1 2 3 100 -340.611 3.71504
288      189.803 1 2 3 100 -340.611 3.28701
289      189.803 1 2 3 100 -340.611 2.85899
290      189.803 1 2 3 100 -340.611 2.43096
291      189.803 1 2 3 100 -340.611 2.00294
292      189.803 1 2 3 100 -340.611 1.57491
293      189.803 1 2 3 100 -340.611 1.14689
294      189.803 1 2 3 100 -340.611 0.718865
295      189.803 1 2 3 100 -340.611 0.29084
296      189.803 1 2 3 100 -340.611 6.146
297      189.803 1 2 3 100 -340.611 5.71798
298      189.803 1 2 3 100 -340.611 5.28995
299      189.803 1 2 3 100 -340.611 4.86193
300      189.803 1 2 3 100 -340.611 4.4339
301      189.803 1 2 3 100 -288.209 0
302      189.803 1 2 3 100 -288.209 5.92101
303      189.803 1 2 3 100 -288.209 5.55884
304      189.803 1 2 3 100 -288.209 5.19666
305      189.803 1 2 3 100 -288.209 4.83449
306      189.803 1 2 3 100 -288.209 4.47231
307      189.803 1 2 3 100 -288.209 4.11014
308      189.803 1 2 3 100 -288.209 3.74796
309      189.803 1 2 3 100 -288.209 3.38579
310      189.803 1 2 3 100 -288.209 3.02361
311      189.803 1 2 3 100 -288.209 2.66144
312      189.803 1 2 3 100 -288.209 2.29926
313      189.803 1 2 3 100 -288.209 1.93709
314      189.803 1 2 3 100 -288.209 1.57491
315      189.803 1 2 3 100 -288.209 1.21274
316      189.803 1 2 3 100 -288.209 0.850565
317      189.803 1 2 3 100 -288.209 0.48839
318      189.803 1 2 3 100 -288.209 0.126215
319      189.803 1 2 3 100 -288.209 6.04723
320      189.803 1 2 3 100 -288.209 5.68505
321      189.803 1 2 3 100 -235.808 0
322      189.803 1 2 3 100 -235.808 5.98686
323      189.803 1 2 3 100 -235.808 5.69054
324      189.803 1 2 3 100 -235.808 5.39421
325      189.803 1 2 3 100 -235.808 5.09789
326      189.803 1 2 3 100 -235.808 4.80156
327      189.803 1 2 3 100 -235.808 4.50524
328      189.803 1 2 3 100 -235.808 4.20891
329      189.803 1 2 3 100 -235.808 3.91259
330      189.803 1 2 3 100 -235.808 3.61626
331      189.803 1 2 3 100 -235.808 3.31994
332      189.803 1 2 3 100 -235.808 3.02361
333      189.803 1 2 3 100 -235.808 2.72729
334      189.803 1 2 3 100 -235.808 2.43096
335      189.803 1 2 3 100 -235.808 2.13464
336      189.803 1 2 3 100 -235.808 1.83831
337      189.803 1 2 3 100 -235.808 1.54199
338      189.803 1 2 3 100 -235.808 1.24566
339      189.803 1 2 3 100 -235.808 0.94934
340      189.803 1 2 3 100 -235.808 0.653015
341      189.803 1 2 3 100 -183.406 0
342      189.803 1 2 3 100 -183.406 6.05271
343      189.803 1 2 3 100 -183.406 5.82224
344      189.803 1 2 3 100 -183.406 5.59176
345      189.803 1 2 3 100 -183.406 5.36129
346      189.803 1 2 3 100 -183.406 5.13081
347      189.803 1 2 3 100 -183.406 4.90034
348      189.803 1 2 3 100 -183.406 4.66986
349      189.803 1 2 3 100 -183.406 4.43939
350      189.803 1 2 3 100 -183.406 4.20891
351      189.803 1 2 3 100 -183.406 3.97844
352      189.803 1 2 3 100 -183.406 3.74796
353      189.803 1 2 3 100 -183.406 3.51749
354      189.803 1 2 3 100 -183.406 3.28701
355      189.803 1 2 3 100 -183.406 3.05654
356      189.803 1 2 3 100 -183.406 2.82606
357      189.803 1 2 3 100 -183.406 2.59559
358      189.803 1 2 3 100 -183.406 2.36511
359      189.803 1 2 3 100 -183.406 2.13464
360      189.803 1 2 3 100 -183.406 1.90416
361      189.803 1 2 3 100 -131.004 0
362      189.803 1 2 3 100 -131.004 6.11856
363      189.803 1 2 3 100 -131.004 5.95394
364      189.803 1 2 3 100 -131.004 5.78931
365      189.803 1 2 3 100 -131.004 5.62469
366      189.803 1 2 3 100 -131.004 5.46006
367      189.803 1 2 3 100 -131.004 5.29544
368      189.803 1 2 3 100 -131.004 5.13081
369      189.803 1 2 3 100 -131.004 4.96619
370      189.803 1 2 3 100 -131.004 4.80156
371      189.803 1 2 3 100 -131.004 4.63694
372      189.803 1 2 3 100 -131.004 4.47231
373      189.803 1 2 3 100 -131.004 4.30769
374      189.803 1 2 3 100 -131.004 4.14306
375      189.803 1 2 3 100 -131.004 3.97844
376      189.803 1 2 3 100 -131.004 3.81381
377      189.803 1 2 3 100 -131.004 3.64919
378      189.803 1 2 3 100 -131.004 3.48456
379      189.803 1 2 3 100 -131.004 3.31994
380      189.803 1 2 3 100 -131.004 3.15531
381      189.803 1 2 3 100 -78.6026 0
382      189.803 1 2 3 100 -78.6026 6.18441
383      189.803 1 2 3 100 -78.6026 6.08564
384      189.803 1 2 3 100 -78.6026 5.98686
385      189.803 1 2 3 100 -78.6026 5.88809
386      189.803 1 2 3 100 -78.6026 5.78931
387      189.803 1 2 3 100 -78.6026 5.69054
388      189.803 1 2 3 100 -78.6026 5.59176
389      189.803 1 2 3 100 -78.6026 5.49299
390      189.803 1 2 3 100 -78.6026 5.39421
391      189.803 1 2 3 100 -78.6026 5.29544
392      189.803 1 2 3 100 -78.6026 5.19666
393      189.803 1 2 3 100 -78.6026 5.09789
394      189.803 1 2 3 100 -78.6026 4.99911
395      189.803 1 2 3 100 -78.6026 4.90034
396      189.803 1 2 3 100 -78.6026 4.80156
397      189.803 1 2 3 100 -78.6026 4.70279
398      189.803 1 2 3 100 -78.6026 4.60401
399      189.803 1 2 3 100 -78.6026 4.50524
400      189.803 1 2 3 100 -78.6026 4.40646
401      189.803 1 2 3 100 -26.2009 0
402      189.803 1 2 3 100 -26.2009 6.25026
403      189.803 1 2 3 100 -26.2009 6.21734
404      189.803 1 2 3 100 -26.2009 6.18441
405      189.803 1 2 3 100 -26.2009 6.15149
406      189.803 1 2 3 100 -26.2009 6.11856
407      189.803 1 2 3 100 -26.2009 6.08564
408      189.803 1 2 3 100 -26.2009 6.05271
409      189.803 1 2 3 100 -26.2009 6.01979
410      189.803 1 2 3 100 -26.2009 5.98686
411      189.803 1 2 3 100 -26.2009 5.95394
412      189.803 1 2 3 100 -26.2009 5.92101
413      189.803 1 2 3 100 -26.2009 5.88809
414      189.803 1 2 3 100 -26.2009 5.85516
415      189.803 1 2 3 100 -26.2009 5.82224
416      189.803 1 2 3 100 -26.2009 5.78931
417      189.803 1 2 3 100 -26.2009 5.75639
418      189.803 1 2 3 100 -26.2009 5.72346
419      189.803 1 2 3 100 -26.2009 5.69054
420      189.803 1 2 3 100 -26.2009 5.65761
421      189.803 1 2 3 100 26.2009 0
422      189.803 1 2 3 100 26.2009 0.032925
423      189.803 1 2 3 100 26.2009 0.0658499
424      189.803 1 2 3 100 26.2009 0.0987749
425      189.803 1 2 3 100 26.2009 0.1317
426      189.803 1 2 3 100 26.2009 0.164625
427      189.803 1 2 3 100 26.2009 0.19755
428      189.803 1 2 3 100 26.2009 0.230475
429      189.803 1 2 3 100 26.2009 0.2634
430      189.803 1 2 3 100 26.2009 0.296325
431      189.803 1 2 3 100 26.2009 0.32925
432      189.803 1 2 3 100 26.2009 0.362175
433      189.803 1 2 3 100 26.2009 0.3951
434      189.803 1 2 3 100 26.2009 0.428025
435      189.803 1 2 3 100 26.2009 0.46095
436      189.803 1 2 3 100 26.2009 0.493875
437      189.803 1 2 3 100 26.2009 0.5268
438      189.803 1 2 3 100 26.2009 0.559725
439      189.803 1 2 3 100 26.2009 0.59265
440      189.803 1 2 3 100 26.2009 0.625574
441      189.803 1 2 3 100 78.6026 0
442      189.803 1 2 3 100 78.6026 0.0987749
443      189.803 1 2 3 100 78.6026 0.19755
444      189.803 1 2 3 100 78.6026 0.296325
445      189.803 1 2 3 100 78.6026 0.3951
446      189.803 1 2 3 100 78.6026 0.493875
447      189.803 1 2 3 100 78.6026 0.59265
448      189.803 1 2 3 100 78.6026 0.691424
449      189.803 1 2 3 100 78.6026 0.790199
450      189.803 1 2 3 100 78.6026 0.888974
451      189.803 1 2 3 100 78.6026 0.987749
452      189.803 1 2 3 100 78.6026 1.08652
453      189.803 1 2 3 100 78.6026 1.1853
454      189.803 1 2 3 100 78.6026 1.28407
455      189.803 1 2 3 100 78.6026 1.38285
456      189.803 1 2 3 100 78.6026 1.48162
457      189.803 1 2 3 100 78.6026 1.5804
458      189.803 1 2 3 100 78.6026 1.67917
459      189.803 1 2 3 100 78.6026 1.77795
460      189.803 1 2 3 100 78.6026 1.87672
461      189.803 1 2 3 100 131.004 0
