# Pulseq sequence file
# Created by MATLAB mr toolbox

# Created for Pulseq-CEST
# https://pulseq-cest.github.io/
# Created by: Kai Herz
# Created at: 14-Sep-2021 10:52:40

[VERSION]
major 1
minor 3
revision 1

[DEFINITIONS]
B0 3 
B1cwpe 2.02979811 
DCsat 0.555555556 
M0_offset -300 
Trec 2.4 
Trec_M0 12 
Tsat 1.76 
n_pulses 20 
num_meas 41 
offsets_ppm -300 -8 -7.58974359 -7.17948718 -6.76923077 -6.35897436 -5.94871795 -5.53846154 -5.12820513 -4.71794872 -4.30769231 -3.8974359 -3.48717949 -3.07692308 -2.66666667 -2.25641026 -1.84615385 -1.43589744 -1.02564103 -0.615384615 -0.205128205 0.205128205 0.615384615 1.02564103 1.43589744 1.84615385 2.25641026 2.66666667 3.07692308 3.48717949 3.8974359 4.30769231 4.71794872 5.12820513 5.53846154 5.94871795 6.35897436 6.76923077 7.17948718 7.58974359 8 
seq_id_string APTw_3T_example 
td 0.04 
tp 0.05 

# Format of blocks:
#  #  D RF  GX  GY  GZ ADC EXT
[BLOCKS]
   1  1  0   0   0   0  0  0
   2  0  1   0   0   0  0  0
   3  2  0   0   0   0  0  0
   4  0  2   0   0   0  0  0
   5  2  0   0   0   0  0  0
   6  0  3   0   0   0  0  0
   7  2  0   0   0   0  0  0
   8  0  4   0   0   0  0  0
   9  2  0   0   0   0  0  0
  10  0  5   0   0   0  0  0
  11  2  0   0   0   0  0  0
  12  0  6   0   0   0  0  0
  13  2  0   0   0   0  0  0
  14  0  7   0   0   0  0  0
  15  2  0   0   0   0  0  0
  16  0  8   0   0   0  0  0
  17  2  0   0   0   0  0  0
  18  0  9   0   0   0  0  0
  19  2  0   0   0   0  0  0
  20  0 10   0   0   0  0  0
  21  2  0   0   0   0  0  0
  22  0 11   0   0   0  0  0
  23  2  0   0   0   0  0  0
  24  0 12   0   0   0  0  0
  25  2  0   0   0   0  0  0
  26  0 13   0   0   0  0  0
  27  2  0   0   0   0  0  0
  28  0 14   0   0   0  0  0
  29  2  0   0   0   0  0  0
  30  0 15   0   0   0  0  0
  31  2  0   0   0   0  0  0
  32  0 16   0   0   0  0  0
  33  2  0   0   0   0  0  0
  34  0 17   0   0   0  0  0
  35  2  0   0   0   0  0  0
  36  0 18   0   0   0  0  0
  37  2  0   0   0   0  0  0
  38  0 19   0   0   0  0  0
  39  2  0   0   0   0  0  0
  40  0 20   0   0   0  0  0
  41  0  0   1   1   1  0  0
  42  0  0   0   0   0  1  0
  43  3  0   0   0   0  0  0
  44  0 21   0   0   0  0  0
  45  2  0   0   0   0  0  0
  46  0 22   0   0   0  0  0
  47  2  0   0   0   0  0  0
  48  0 23   0   0   0  0  0
  49  2  0   0   0   0  0  0
  50  0 24   0   0   0  0  0
  51  2  0   0   0   0  0  0
  52  0 25   0   0   0  0  0
  53  2  0   0   0   0  0  0
  54  0 26   0   0   0  0  0
  55  2  0   0   0   0  0  0
  56  0 27   0   0   0  0  0
  57  2  0   0   0   0  0  0
  58  0 28   0   0   0  0  0
  59  2  0   0   0   0  0  0
  60  0 29   0   0   0  0  0
  61  2  0   0   0   0  0  0
  62  0 30   0   0   0  0  0
  63  2  0   0   0   0  0  0
  64  0 31   0   0   0  0  0
  65  2  0   0   0   0  0  0
  66  0 32   0   0   0  0  0
  67  2  0   0   0   0  0  0
  68  0 33   0   0   0  0  0
  69  2  0   0   0   0  0  0
  70  0 34   0   0   0  0  0
  71  2  0   0   0   0  0  0
  72  0 35   0   0   0  0  0
  73  2  0   0   0   0  0  0
  74  0 36   0   0   0  0  0
  75  2  0   0   0   0  0  0
  76  0 37   0   0   0  0  0
  77  2  0   0   0   0  0  0
  78  0 38   0   0   0  0  0
  79  2  0   0   0   0  0  0
  80  0 39   0   0   0  0  0
  81  2  0   0   0   0  0  0
  82  0 40   0   0   0  0  0
  83  0  0   1   1   1  0  0
  84  0  0   0   0   0  1  0
  85  3  0   0   0   0  0  0
  86  0 41   0   0   0  0  0
  87  2  0   0   0   0  0  0
  88  0 42   0   0   0  0  0
  89  2  0   0   0   0  0  0
  90  0 43   0   0   0  0  0
  91  2  0   0   0   0  0  0
  92  0 44   0   0   0  0  0
  93  2  0   0   0   0  0  0
  94  0 45   0   0   0  0  0
  95  2  0   0   0   0  0  0
  96  0 46   0   0   0  0  0
  97  2  0   0   0   0  0  0
  98  0 47   0   0   0  0  0
  99  2  0   0   0   0  0  0
 100  0 48   0   0   0  0  0
 101  2  0   0   0   0  0  0
 102  0 49   0   0   0  0  0
 103  2  0   0   0   0  0  0
 104  0 50   0   0   0  0  0
 105  2  0   0   0   0  0  0
 106  0 51   0   0   0  0  0
 107  2  0   0   0   0  0  0
 108  0 52   0   0   0  0  0
 109  2  0   0   0   0  0  0
 110  0 53   0   0   0  0  0
 111  2  0   0   0   0  0  0
 112  0 54   0   0   0  0  0
 113  2  0   0   0   0  0  0
 114  0 55   0   0   0  0  0
 115  2  0   0   0   0  0  0
 116  0 56   0   0   0  0  0
 117  2  0   0   0   0  0  0
 118  0 57   0   0   0  0  0
 119  2  0   0   0   0  0  0
 120  0 58   0   0   0  0  0
 121  2  0   0   0   0  0  0
 122  0 59   0   0   0  0  0
 123  2  0   0   0   0  0  0
 124  0 60   0   0   0  0  0
 125  0  0   1   1   1  0  0
 126  0  0   0   0   0  1  0
 127  3  0   0   0   0  0  0
 128  0 61   0   0   0  0  0
 129  2  0   0   0   0  0  0
 130  0 62   0   0   0  0  0
 131  2  0   0   0   0  0  0
 132  0 63   0   0   0  0  0
 133  2  0   0   0   0  0  0
 134  0 64   0   0   0  0  0
 135  2  0   0   0   0  0  0
 136  0 65   0   0   0  0  0
 137  2  0   0   0   0  0  0
 138  0 66   0   0   0  0  0
 139  2  0   0   0   0  0  0
 140  0 67   0   0   0  0  0
 141  2  0   0   0   0  0  0
 142  0 68   0   0   0  0  0
 143  2  0   0   0   0  0  0
 144  0 69   0   0   0  0  0
 145  2  0   0   0   0  0  0
 146  0 70   0   0   0  0  0
 147  2  0   0   0   0  0  0
 148  0 71   0   0   0  0  0
 149  2  0   0   0   0  0  0
 150  0 72   0   0   0  0  0
 151  2  0   0   0   0  0  0
 152  0 73   0   0   0  0  0
 153  2  0   0   0   0  0  0
 154  0 74   0   0   0  0  0
 155  2  0   0   0   0  0  0
 156  0 75   0   0   0  0  0
 157  2  0   0   0   0  0  0
 158  0 76   0   0   0  0  0
 159  2  0   0   0   0  0  0
 160  0 77   0   0   0  0  0
 161  2  0   0   0   0  0  0
 162  0 78   0   0   0  0  0
 163  2  0   0   0   0  0  0
 164  0 79   0   0   0  0  0
 165  2  0   0   0   0  0  0
 166  0 80   0   0   0  0  0
 167  0  0   1   1   1  0  0
 168  0  0   0   0   0  1  0
 169  3  0   0   0   0  0  0
 170  0 81   0   0   0  0  0
 171  2  0   0   0   0  0  0
 172  0 82   0   0   0  0  0
 173  2  0   0   0   0  0  0
 174  0 83   0   0   0  0  0
 175  2  0   0   0   0  0  0
 176  0 84   0   0   0  0  0
 177  2  0   0   0   0  0  0
 178  0 85   0   0   0  0  0
 179  2  0   0   0   0  0  0
 180  0 86   0   0   0  0  0
 181  2  0   0   0   0  0  0
 182  0 87   0   0   0  0  0
 183  2  0   0   0   0  0  0
 184  0 88   0   0   0  0  0
 185  2  0   0   0   0  0  0
 186  0 89   0   0   0  0  0
 187  2  0   0   0   0  0  0
 188  0 90   0   0   0  0  0
 189  2  0   0   0   0  0  0
 190  0 91   0   0   0  0  0
 191  2  0   0   0   0  0  0
 192  0 92   0   0   0  0  0
 193  2  0   0   0   0  0  0
 194  0 93   0   0   0  0  0
 195  2  0   0   0   0  0  0
 196  0 94   0   0   0  0  0
 197  2  0   0   0   0  0  0
 198  0 95   0   0   0  0  0
 199  2  0   0   0   0  0  0
 200  0 96   0   0   0  0  0
 201  2  0   0   0   0  0  0
 202  0 97   0   0   0  0  0
 203  2  0   0   0   0  0  0
 204  0 98   0   0   0  0  0
 205  2  0   0   0   0  0  0
 206  0 99   0   0   0  0  0
 207  2  0   0   0   0  0  0
 208  0 100   0   0   0  0  0
 209  0  0   1   1   1  0  0
 210  0  0   0   0   0  1  0
 211  3  0   0   0   0  0  0
 212  0 101   0   0   0  0  0
 213  2  0   0   0   0  0  0
 214  0 102   0   0   0  0  0
 215  2  0   0   0   0  0  0
 216  0 103   0   0   0  0  0
 217  2  0   0   0   0  0  0
 218  0 104   0   0   0  0  0
 219  2  0   0   0   0  0  0
 220  0 105   0   0   0  0  0
 221  2  0   0   0   0  0  0
 222  0 106   0   0   0  0  0
 223  2  0   0   0   0  0  0
 224  0 107   0   0   0  0  0
 225  2  0   0   0   0  0  0
 226  0 108   0   0   0  0  0
 227  2  0   0   0   0  0  0
 228  0 109   0   0   0  0  0
 229  2  0   0   0   0  0  0
 230  0 110   0   0   0  0  0
 231  2  0   0   0   0  0  0
 232  0 111   0   0   0  0  0
 233  2  0   0   0   0  0  0
 234  0 112   0   0   0  0  0
 235  2  0   0   0   0  0  0
 236  0 113   0   0   0  0  0
 237  2  0   0   0   0  0  0
 238  0 114   0   0   0  0  0
 239  2  0   0   0   0  0  0
 240  0 115   0   0   0  0  0
 241  2  0   0   0   0  0  0
 242  0 116   0   0   0  0  0
 243  2  0   0   0   0  0  0
 244  0 117   0   0   0  0  0
 245  2  0   0   0   0  0  0
 246  0 118   0   0   0  0  0
 247  2  0   0   0   0  0  0
 248  0 119   0   0   0  0  0
 249  2  0   0   0   0  0  0
 250  0 120   0   0   0  0  0
 251  0  0   1   1   1  0  0
 252  0  0   0   0   0  1  0
 253  3  0   0   0   0  0  0
 254  0 121   0   0   0  0  0
 255  2  0   0   0   0  0  0
 256  0 122   0   0   0  0  0
 257  2  0   0   0   0  0  0
 258  0 123   0   0   0  0  0
 259  2  0   0   0   0  0  0
 260  0 124   0   0   0  0  0
 261  2  0   0   0   0  0  0
 262  0 125   0   0   0  0  0
 263  2  0   0   0   0  0  0
 264  0 126   0   0   0  0  0
 265  2  0   0   0   0  0  0
 266  0 127   0   0   0  0  0
 267  2  0   0   0   0  0  0
 268  0 128   0   0   0  0  0
 269  2  0   0   0   0  0  0
 270  0 129   0   0   0  0  0
 271  2  0   0   0   0  0  0
 272  0 130   0   0   0  0  0
 273  2  0   0   0   0  0  0
 274  0 131   0   0   0  0  0
 275  2  0   0   0   0  0  0
 276  0 132   0   0   0  0  0
 277  2  0   0   0   0  0  0
 278  0 133   0   0   0  0  0
 279  2  0   0   0   0  0  0
 280  0 134   0   0   0  0  0
 281  2  0   0   0   0  0  0
 282  0 135   0   0   0  0  0
 283  2  0   0   0   0  0  0
 284  0 136   0   0   0  0  0
 285  2  0   0   0   0  0  0
 286  0 137   0   0   0  0  0
 287  2  0   0   0   0  0  0
 288  0 138   0   0   0  0  0
 289  2  0   0   0   0  0  0
 290  0 139   0   0   0  0  0
 291  2  0   0   0   0  0  0
 292  0 140   0   0   0  0  0
 293  0  0   1   1   1  0  0
 294  0  0   0   0   0  1  0
 295  3  0   0   0   0  0  0
 296  0 141   0   0   0  0  0
 297  2  0   0   0   0  0  0
 298  0 142   0   0   0  0  0
 299  2  0   0   0   0  0  0
 300  0 143   0   0   0  0  0
 301  2  0   0   0   0  0  0
 302  0 144   0   0   0  0  0
 303  2  0   0   0   0  0  0
 304  0 145   0   0   0  0  0
 305  2  0   0   0   0  0  0
 306  0 146   0   0   0  0  0
 307  2  0   0   0   0  0  0
 308  0 147   0   0   0  0  0
 309  2  0   0   0   0  0  0
 310  0 148   0   0   0  0  0
 311  2  0   0   0   0  0  0
[RF]
1      189.815 1 2 100 -38318.8 0
2      189.815 1 2 100 -38318.8 0.630321
3      189.815 1 2 100 -38318.8 1.26064
4      189.815 1 2 100 -38318.8 1.89096
5      189.815 1 2 100 -38318.8 2.52129
6      189.815 1 2 100 -38318.8 3.15161
7      189.815 1 2 100 -38318.8 3.78193
8      189.815 1 2 100 -38318.8 4.41225
9      189.815 1 2 100 -38318.8 5.04257
10      189.815 1 2 100 -38318.8 5.67289
11      189.815 1 2 100 -38318.8 0.0200283
12      189.815 1 2 100 -38318.8 0.65035
13      189.815 1 2 100 -38318.8 1.28067
14      189.815 1 2 100 -38318.8 1.91099
15      189.815 1 2 100 -38318.8 2.54131
16      189.815 1 2 100 -38318.8 3.17164
17      189.815 1 2 100 -38318.8 3.80196
18      189.815 1 2 100 -38318.8 4.43228
19      189.815 1 2 100 -38318.8 5.0626
20      189.815 1 2 100 -38318.8 5.69292
21      189.815 1 2 100 -1021.83 0
22      189.815 1 2 100 -1021.83 5.71356
23      189.815 1 2 100 -1021.83 5.14394
24      189.815 1 2 100 -1021.83 4.57432
25      189.815 1 2 100 -1021.83 4.0047
26      189.815 1 2 100 -1021.83 3.43508
27      189.815 1 2 100 -1021.83 2.86545
28      189.815 1 2 100 -1021.83 2.29583
29      189.815 1 2 100 -1021.83 1.72621
30      189.815 1 2 100 -1021.83 1.15659
31      189.815 1 2 100 -1021.83 0.586965
32      189.815 1 2 100 -1021.83 0.0173427
33      189.815 1 2 100 -1021.83 5.73091
34      189.815 1 2 100 -1021.83 5.16128
35      189.815 1 2 100 -1021.83 4.59166
36      189.815 1 2 100 -1021.83 4.02204
37      189.815 1 2 100 -1021.83 3.45242
38      189.815 1 2 100 -1021.83 2.8828
39      189.815 1 2 100 -1021.83 2.31317
40      189.815 1 2 100 -1021.83 1.74355
41      189.815 1 2 100 -969.432 0
42      189.815 1 2 100 -969.432 3.32616
43      189.815 1 2 100 -969.432 0.369144
44      189.815 1 2 100 -969.432 3.69531
45      189.815 1 2 100 -969.432 0.738289
46      189.815 1 2 100 -969.432 4.06445
47      189.815 1 2 100 -969.432 1.10743
48      189.815 1 2 100 -969.432 4.4336
49      189.815 1 2 100 -969.432 1.47658
50      189.815 1 2 100 -969.432 4.80274
51      189.815 1 2 100 -969.432 1.84572
52      189.815 1 2 100 -969.432 5.17189
53      189.815 1 2 100 -969.432 2.21487
54      189.815 1 2 100 -969.432 5.54103
55      189.815 1 2 100 -969.432 2.58401
56      189.815 1 2 100 -969.432 5.91018
57      189.815 1 2 100 -969.432 2.95316
58      189.815 1 2 100 -969.432 6.27932
59      189.815 1 2 100 -969.432 3.3223
60      189.815 1 2 100 -969.432 0.36528
61      189.815 1 2 100 -917.03 0
62      189.815 1 2 100 -917.03 0.938767
63      189.815 1 2 100 -917.03 1.87753
64      189.815 1 2 100 -917.03 2.8163
65      189.815 1 2 100 -917.03 3.75507
66      189.815 1 2 100 -917.03 4.69383
67      189.815 1 2 100 -917.03 5.6326
68      189.815 1 2 100 -917.03 0.288181
69      189.815 1 2 100 -917.03 1.22695
70      189.815 1 2 100 -917.03 2.16571
71      189.815 1 2 100 -917.03 3.10448
72      189.815 1 2 100 -917.03 4.04325
73      189.815 1 2 100 -917.03 4.98201
74      189.815 1 2 100 -917.03 5.92078
75      189.815 1 2 100 -917.03 0.576361
76      189.815 1 2 100 -917.03 1.51513
77      189.815 1 2 100 -917.03 2.45389
78      189.815 1 2 100 -917.03 3.39266
79      189.815 1 2 100 -917.03 4.33143
80      189.815 1 2 100 -917.03 5.27019
81      189.815 1 2 100 -864.628 0
82      189.815 1 2 100 -864.628 4.83455
83      189.815 1 2 100 -864.628 3.38592
84      189.815 1 2 100 -864.628 1.93729
85      189.815 1 2 100 -864.628 0.488658
86      189.815 1 2 100 -864.628 5.32321
87      189.815 1 2 100 -864.628 3.87458
88      189.815 1 2 100 -864.628 2.42595
89      189.815 1 2 100 -864.628 0.977316
90      189.815 1 2 100 -864.628 5.81187
91      189.815 1 2 100 -864.628 4.36324
92      189.815 1 2 100 -864.628 2.91461
93      189.815 1 2 100 -864.628 1.46597
94      189.815 1 2 100 -864.628 0.0173427
95      189.815 1 2 100 -864.628 4.8519
96      189.815 1 2 100 -864.628 3.40326
97      189.815 1 2 100 -864.628 1.95463
98      189.815 1 2 100 -864.628 0.506001
99      189.815 1 2 100 -864.628 5.34055
100      189.815 1 2 100 -864.628 3.89192
101      189.815 1 2 100 -812.227 0
102      189.815 1 2 100 -812.227 2.44716
103      189.815 1 2 100 -812.227 4.89431
104      189.815 1 2 100 -812.227 1.05828
105      189.815 1 2 100 -812.227 3.50544
106      189.815 1 2 100 -812.227 5.95259
107      189.815 1 2 100 -812.227 2.11656
108      189.815 1 2 100 -812.227 4.56372
109      189.815 1 2 100 -812.227 0.727685
110      189.815 1 2 100 -812.227 3.17484
111      189.815 1 2 100 -812.227 5.622
112      189.815 1 2 100 -812.227 1.78597
113      189.815 1 2 100 -812.227 4.23312
114      189.815 1 2 100 -812.227 0.397091
115      189.815 1 2 100 -812.227 2.84425
116      189.815 1 2 100 -812.227 5.2914
117      189.815 1 2 100 -812.227 1.45537
118      189.815 1 2 100 -812.227 3.90253
119      189.815 1 2 100 -812.227 0.0664959
120      189.815 1 2 100 -812.227 2.51365
121      189.815 1 2 100 -759.825 0
122      189.815 1 2 100 -759.825 0.0597568
123      189.815 1 2 100 -759.825 0.119514
124      189.815 1 2 100 -759.825 0.17927
125      189.815 1 2 100 -759.825 0.239027
126      189.815 1 2 100 -759.825 0.298784
127      189.815 1 2 100 -759.825 0.358541
128      189.815 1 2 100 -759.825 0.418298
129      189.815 1 2 100 -759.825 0.478055
130      189.815 1 2 100 -759.825 0.537811
131      189.815 1 2 100 -759.825 0.597568
132      189.815 1 2 100 -759.825 0.657325
133      189.815 1 2 100 -759.825 0.717082
134      189.815 1 2 100 -759.825 0.776839
135      189.815 1 2 100 -759.825 0.836596
136      189.815 1 2 100 -759.825 0.896352
137      189.815 1 2 100 -759.825 0.956109
138      189.815 1 2 100 -759.825 1.01587
139      189.815 1 2 100 -759.825 1.07562
140      189.815 1 2 100 -759.825 1.13538
141      189.815 1 2 100 -707.423 0
142      189.815 1 2 100 -707.423 3.95554
143      189.815 1 2 100 -707.423 1.6279
144      189.815 1 2 100 -707.423 5.58345
145      189.815 1 2 100 -707.423 3.2558
146      189.815 1 2 100 -707.423 0.928163
147      189.815 1 2 100 -707.423 4.88371
148      189.815 1 2 100 -707.423 2.55607
149      189.815 1 2 100 -707.423 0.228424
150      189.815 1 2 100 -707.423 4.18397
151      189.815 1 2 100 -707.423 1.85633
152      189.815 1 2 100 -707.423 5.81187
153      189.815 1 2 100 -707.423 3.48423
154      189.815 1 2 100 -707.423 1.15659
155      189.815 1 2 100 -707.423 5.11213
156      189.815 1 2 100 -707.423 2.78449
157      189.815 1 2 100 -707.423 0.456848
158      189.815 1 2 100 -707.423 4.41239
159      189.815 1 2 100 -707.423 2.08475
160      189.815 1 2 100 -707.423 6.04029
161      189.815 1 2 100 -655.022 0
162      189.815 1 2 100 -655.022 1.56815
163      189.815 1 2 100 -655.022 3.13629
164      189.815 1 2 100 -655.022 4.70444
165      189.815 1 2 100 -655.022 6.27258
166      189.815 1 2 100 -655.022 1.55754
167      189.815 1 2 100 -655.022 3.12569
168      189.815 1 2 100 -655.022 4.69383
169      189.815 1 2 100 -655.022 6.26198
170      189.815 1 2 100 -655.022 1.54694
171      189.815 1 2 100 -655.022 3.11508
172      189.815 1 2 100 -655.022 4.68323
173      189.815 1 2 100 -655.022 6.25137
174      189.815 1 2 100 -655.022 1.53633
175      189.815 1 2 100 -655.022 3.10448
176      189.815 1 2 100 -655.022 4.67263
177      189.815 1 2 100 -655.022 6.24077
178      189.815 1 2 100 -655.022 1.52573
179      189.815 1 2 100 -655.022 3.09388
180      189.815 1 2 100 -655.022 4.66202
181      189.815 1 2 100 -602.62 0
182      189.815 1 2 100 -602.62 5.46393
183      189.815 1 2 100 -602.62 4.64468
184      189.815 1 2 100 -602.62 3.82543
185      189.815 1 2 100 -602.62 3.00617
186      189.815 1 2 100 -602.62 2.18692
187      189.815 1 2 100 -602.62 1.36767
188      189.815 1 2 100 -602.62 0.548415
189      189.815 1 2 100 -602.62 6.01235
190      189.815 1 2 100 -602.62 5.19309
191      189.815 1 2 100 -602.62 4.37384
192      189.815 1 2 100 -602.62 3.55459
193      189.815 1 2 100 -602.62 2.73534
194      189.815 1 2 100 -602.62 1.91608
195      189.815 1 2 100 -602.62 1.09683
196      189.815 1 2 100 -602.62 0.277577
197      189.815 1 2 100 -602.62 5.74151
198      189.815 1 2 100 -602.62 4.92226
199      189.815 1 2 100 -602.62 4.103
200      189.815 1 2 100 -602.62 3.28375
201      189.815 1 2 100 -550.218 0
202      189.815 1 2 100 -550.218 3.07653
203      189.815 1 2 100 -550.218 6.15307
204      189.815 1 2 100 -550.218 2.94642
205      189.815 1 2 100 -550.218 6.02295
206      189.815 1 2 100 -550.218 2.8163
207      189.815 1 2 100 -550.218 5.89283
208      189.815 1 2 100 -550.218 2.68618
209      189.815 1 2 100 -550.218 5.76272
210      189.815 1 2 100 -550.218 2.55607
211      189.815 1 2 100 -550.218 5.6326
212      189.815 1 2 100 -550.218 2.42595
213      189.815 1 2 100 -550.218 5.50248
214      189.815 1 2 100 -550.218 2.29583
215      189.815 1 2 100 -550.218 5.37236
216      189.815 1 2 100 -550.218 2.16571
217      189.815 1 2 100 -550.218 5.24225
218      189.815 1 2 100 -550.218 2.0356
219      189.815 1 2 100 -550.218 5.11213
220      189.815 1 2 100 -550.218 1.90548
221      189.815 1 2 100 -497.816 0
222      189.815 1 2 100 -497.816 0.689136
223      189.815 1 2 100 -497.816 1.37827
224      189.815 1 2 100 -497.816 2.06741
225      189.815 1 2 100 -497.816 2.75654
226      189.815 1 2 100 -497.816 3.44568
227      189.815 1 2 100 -497.816 4.13481
228      189.815 1 2 100 -497.816 4.82395
229      189.815 1 2 100 -497.816 5.51309
230      189.815 1 2 100 -497.816 6.20222
231      189.815 1 2 100 -497.816 0.608172
232      189.815 1 2 100 -497.816 1.29731
233      189.815 1 2 100 -497.816 1.98644
234      189.815 1 2 100 -497.816 2.67558
235      189.815 1 2 100 -497.816 3.36471
236      189.815 1 2 100 -497.816 4.05385
237      189.815 1 2 100 -497.816 4.74299
238      189.815 1 2 100 -497.816 5.43212
239      189.815 1 2 100 -497.816 6.12126
240      189.815 1 2 100 -497.816 0.527208
241      189.815 1 2 100 -445.415 0
242      189.815 1 2 100 -445.415 4.58492
243      189.815 1 2 100 -445.415 2.88666
244      189.815 1 2 100 -445.415 1.1884
245      189.815 1 2 100 -445.415 5.77332
246      189.815 1 2 100 -445.415 4.07506
247      189.815 1 2 100 -445.415 2.37679
248      189.815 1 2 100 -445.415 0.678532
249      189.815 1 2 100 -445.415 5.26345
250      189.815 1 2 100 -445.415 3.56519
251      189.815 1 2 100 -445.415 1.86693
252      189.815 1 2 100 -445.415 0.168667
253      189.815 1 2 100 -445.415 4.75359
254      189.815 1 2 100 -445.415 3.05533
255      189.815 1 2 100 -445.415 1.35706
256      189.815 1 2 100 -445.415 5.94199
257      189.815 1 2 100 -445.415 4.24372
258      189.815 1 2 100 -445.415 2.54546
259      189.815 1 2 100 -445.415 0.847199
260      189.815 1 2 100 -445.415 5.43212
261      189.815 1 2 100 -393.013 0
262      189.815 1 2 100 -393.013 2.19752
263      189.815 1 2 100 -393.013 4.39505
264      189.815 1 2 100 -393.013 0.309388
265      189.815 1 2 100 -393.013 2.50691
266      189.815 1 2 100 -393.013 4.70444
267      189.815 1 2 100 -393.013 0.618775
268      189.815 1 2 100 -393.013 2.8163
269      189.815 1 2 100 -393.013 5.01382
270      189.815 1 2 100 -393.013 0.928163
271      189.815 1 2 100 -393.013 3.12569
272      189.815 1 2 100 -393.013 5.32321
273      189.815 1 2 100 -393.013 1.23755
274      189.815 1 2 100 -393.013 3.43508
275      189.815 1 2 100 -393.013 5.6326
276      189.815 1 2 100 -393.013 1.54694
277      189.815 1 2 100 -393.013 3.74446
278      189.815 1 2 100 -393.013 5.94199
279      189.815 1 2 100 -393.013 1.85633
280      189.815 1 2 100 -393.013 4.05385
281      189.815 1 2 100 -340.611 0
282      189.815 1 2 100 -340.611 6.09331
283      189.815 1 2 100 -340.611 5.90344
284      189.815 1 2 100 -340.611 5.71356
285      189.815 1 2 100 -340.611 5.52369
286      189.815 1 2 100 -340.611 5.33382
287      189.815 1 2 100 -340.611 5.14394
288      189.815 1 2 100 -340.611 4.95407
289      189.815 1 2 100 -340.611 4.76419
290      189.815 1 2 100 -340.611 4.57432
291      189.815 1 2 100 -340.611 4.38445
292      189.815 1 2 100 -340.611 4.19457
293      189.815 1 2 100 -340.611 4.0047
294      189.815 1 2 100 -340.611 3.81482
295      189.815 1 2 100 -340.611 3.62495
296      189.815 1 2 100 -340.611 3.43508
297      189.815 1 2 100 -340.611 3.2452
298      189.815 1 2 100 -340.611 3.05533
299      189.815 1 2 100 -340.611 2.86545
300      189.815 1 2 100 -340.611 2.67558
301      189.815 1 2 100 -288.209 0
302      189.815 1 2 100 -288.209 3.70591
303      189.815 1 2 100 -288.209 1.12864
304      189.815 1 2 100 -288.209 4.83455
305      189.815 1 2 100 -288.209 2.25728
306      189.815 1 2 100 -288.209 5.96319
307      189.815 1 2 100 -288.209 3.38592
308      189.815 1 2 100 -288.209 0.808649
309      189.815 1 2 100 -288.209 4.51456
310      189.815 1 2 100 -288.209 1.93729
311      189.815 1 2 100 -288.209 5.6432
312      189.815 1 2 100 -288.209 3.06593
313      189.815 1 2 100 -288.209 0.488658
314      189.815 1 2 100 -288.209 4.19457
315      189.815 1 2 100 -288.209 1.6173
316      189.815 1 2 100 -288.209 5.32321
317      189.815 1 2 100 -288.209 2.74594
318      189.815 1 2 100 -288.209 0.168667
319      189.815 1 2 100 -288.209 3.87458
320      189.815 1 2 100 -288.209 1.29731
321      189.815 1 2 100 -235.808 0
322      189.815 1 2 100 -235.808 1.31851
323      189.815 1 2 100 -235.808 2.63703
324      189.815 1 2 100 -235.808 3.95554
325      189.815 1 2 100 -235.808 5.27406
326      189.815 1 2 100 -235.808 0.309388
327      189.815 1 2 100 -235.808 1.6279
328      189.815 1 2 100 -235.808 2.94642
329      189.815 1 2 100 -235.808 4.26493
330      189.815 1 2 100 -235.808 5.58345
331      189.815 1 2 100 -235.808 0.618775
332      189.815 1 2 100 -235.808 1.93729
333      189.815 1 2 100 -235.808 3.2558
334      189.815 1 2 100 -235.808 4.57432
335      189.815 1 2 100 -235.808 5.89283
336      189.815 1 2 100 -235.808 0.928163
337      189.815 1 2 100 -235.808 2.24668
338      189.815 1 2 100 -235.808 3.56519
339      189.815 1 2 100 -235.808 4.88371
340      189.815 1 2 100 -235.808 6.20222
341      189.815 1 2 100 -183.406 0
342      189.815 1 2 100 -183.406 5.2143
343      189.815 1 2 100 -183.406 4.14542
344      189.815 1 2 100 -183.406 3.07653
345      189.815 1 2 100 -183.406 2.00765
346      189.815 1 2 100 -183.406 0.938767
347      189.815 1 2 100 -183.406 6.15307
348      189.815 1 2 100 -183.406 5.08418
349      189.815 1 2 100 -183.406 4.0153
350      189.815 1 2 100 -183.406 2.94642
351      189.815 1 2 100 -183.406 1.87753
352      189.815 1 2 100 -183.406 0.808649
353      189.815 1 2 100 -183.406 6.02295
354      189.815 1 2 100 -183.406 4.95407
355      189.815 1 2 100 -183.406 3.88518
356      189.815 1 2 100 -183.406 2.8163
357      189.815 1 2 100 -183.406 1.74742
358      189.815 1 2 100 -183.406 0.678532
359      189.815 1 2 100 -183.406 5.89283
360      189.815 1 2 100 -183.406 4.82395
361      189.815 1 2 100 -131.004 0
362      189.815 1 2 100 -131.004 2.8269
363      189.815 1 2 100 -131.004 5.65381
364      189.815 1 2 100 -131.004 2.19752
365      189.815 1 2 100 -131.004 5.02443
366      189.815 1 2 100 -131.004 1.56815
367      189.815 1 2 100 -131.004 4.39505
368      189.815 1 2 100 -131.004 0.938767
369      189.815 1 2 100 -131.004 3.76567
370      189.815 1 2 100 -131.004 0.309388
371      189.815 1 2 100 -131.004 3.13629
372      189.815 1 2 100 -131.004 5.96319
373      189.815 1 2 100 -131.004 2.50691
374      189.815 1 2 100 -131.004 5.33382
375      189.815 1 2 100 -131.004 1.87753
376      189.815 1 2 100 -131.004 4.70444
377      189.815 1 2 100 -131.004 1.24815
378      189.815 1 2 100 -131.004 4.07506
379      189.815 1 2 100 -131.004 0.618775
380      189.815 1 2 100 -131.004 3.44568
381      189.815 1 2 100 -78.6026 0
382      189.815 1 2 100 -78.6026 0.439505
383      189.815 1 2 100 -78.6026 0.87901
384      189.815 1 2 100 -78.6026 1.31851
385      189.815 1 2 100 -78.6026 1.75802
386      189.815 1 2 100 -78.6026 2.19752
387      189.815 1 2 100 -78.6026 2.63703
388      189.815 1 2 100 -78.6026 3.07653
389      189.815 1 2 100 -78.6026 3.51604
390      189.815 1 2 100 -78.6026 3.95554
391      189.815 1 2 100 -78.6026 4.39505
392      189.815 1 2 100 -78.6026 4.83455
393      189.815 1 2 100 -78.6026 5.27406
394      189.815 1 2 100 -78.6026 5.71356
395      189.815 1 2 100 -78.6026 6.15307
396      189.815 1 2 100 -78.6026 0.309388
397      189.815 1 2 100 -78.6026 0.748893
398      189.815 1 2 100 -78.6026 1.1884
399      189.815 1 2 100 -78.6026 1.6279
400      189.815 1 2 100 -78.6026 2.06741
401      189.815 1 2 100 -26.2009 0
402      189.815 1 2 100 -26.2009 4.33529
403      189.815 1 2 100 -26.2009 2.3874
404      189.815 1 2 100 -26.2009 0.439505
405      189.815 1 2 100 -26.2009 4.7748
406      189.815 1 2 100 -26.2009 2.8269
407      189.815 1 2 100 -26.2009 0.87901
408      189.815 1 2 100 -26.2009 5.2143
409      189.815 1 2 100 -26.2009 3.26641
410      189.815 1 2 100 -26.2009 1.31851
411      189.815 1 2 100 -26.2009 5.65381
412      189.815 1 2 100 -26.2009 3.70591
413      189.815 1 2 100 -26.2009 1.75802
414      189.815 1 2 100 -26.2009 6.09331
415      189.815 1 2 100 -26.2009 4.14542
416      189.815 1 2 100 -26.2009 2.19752
417      189.815 1 2 100 -26.2009 0.249631
418      189.815 1 2 100 -26.2009 4.58492
419      189.815 1 2 100 -26.2009 2.63703
420      189.815 1 2 100 -26.2009 0.689136
421      189.815 1 2 100 26.2009 0
422      189.815 1 2 100 26.2009 1.94789
423      189.815 1 2 100 26.2009 3.89579
424      189.815 1 2 100 26.2009 5.84368
425      189.815 1 2 100 26.2009 1.50839
426      189.815 1 2 100 26.2009 3.45628
427      189.815 1 2 100 26.2009 5.40418
428      189.815 1 2 100 26.2009 1.06888
429      189.815 1 2 100 26.2009 3.01678
430      189.815 1 2 100 26.2009 4.96467
431      189.815 1 2 100 26.2009 0.629379
432      189.815 1 2 100 26.2009 2.57727
433      189.815 1 2 100 26.2009 4.52517
434      189.815 1 2 100 26.2009 0.189874
435      189.815 1 2 100 26.2009 2.13777
436      189.815 1 2 100 26.2009 4.08566
437      189.815 1 2 100 26.2009 6.03355
438      189.815 1 2 100 26.2009 1.69826
439      189.815 1 2 100 26.2009 3.64616
440      189.815 1 2 100 26.2009 5.59405
441      189.815 1 2 100 78.6026 0
442      189.815 1 2 100 78.6026 5.84368
443      189.815 1 2 100 78.6026 5.40418
444      189.815 1 2 100 78.6026 4.96467
445      189.815 1 2 100 78.6026 4.52517
446      189.815 1 2 100 78.6026 4.08566
447      189.815 1 2 100 78.6026 3.64616
448      189.815 1 2 100 78.6026 3.20665
449      189.815 1 2 100 78.6026 2.76715
450      189.815 1 2 100 78.6026 2.32764
451      189.815 1 2 100 78.6026 1.88814
452      189.815 1 2 100 78.6026 1.44863
453      189.815 1 2 100 78.6026 1.00913
454      189.815 1 2 100 78.6026 0.569622
455      189.815 1 2 100 78.6026 0.130117
456      189.815 1 2 100 78.6026 5.9738
457      189.815 1 2 100 78.6026 5.53429
458      189.815 1 2 100 78.6026 5.09479
459      189.815 1 2 100 78.6026 4.65528
460      189.815 1 2 100 78.6026 4.21578
461      189.815 1 2 100 131.004 0
462      189.815 1 2 100 131.004 3.45628
463      189.815 1 2 100 131.004 0.629379
464      189.815 1 2 100 131.004 4.08566
465      189.815 1 2 100 131.004 1.25876
466      189.815 1 2 100 131.004 4.71504
467      189.815 1 2 100 131.004 1.88814
468      189.815 1 2 100 131.004 5.34442
469      189.815 1 2 100 131.004 2.51752
470      189.815 1 2 100 131.004 5.9738
471      189.815 1 2 100 131.004 3.14689
472      189.815 1 2 100 131.004 0.319991
473      189.815 1 2 100 131.004 3.77627
474      189.815 1 2 100 131.004 0.94937
475      189.815 1 2 100 131.004 4.40565
476      189.815 1 2 100 131.004 1.57875
477      189.815 1 2 100 131.004 5.03503
478      189.815 1 2 100 131.004 2.20813
479      189.815 1 2 100 131.004 5.66441
480      189.815 1 2 100 131.004 2.83751
481      189.815 1 2 100 183.406 0
482      189.815 1 2 100 183.406 1.06888
483      189.815 1 2 100 183.406 2.13777
