# Pulseq sequence file
# Created by MATLAB mr toolbox

# Created for Pulseq-CEST
# https://pulseq-cest.github.io/
# Created by: Kai Herz
# Created at: 14-Sep-2021 17:04:58

[VERSION]
major 1
minor 3
revision 1

[DEFINITIONS]
B0 3 
B1cwpe 4 
DCsat 1 
M0_offset -300 
Trec 5 
Trec_M0 5 
Tsat 0.124 
n_pulses 1 
num_meas 25 
offsets_ppm -300 -4 -3.65217391 -3.30434783 -2.95652174 -2.60869565 -2.26086957 -1.91304348 -1.56521739 -1.2173913 -0.869565217 -0.52173913 -0.173913043 0.173913043 0.52173913 0.869565217 1.2173913 1.56521739 1.91304348 2.26086957 2.60869565 2.95652174 3.30434783 3.65217391 4 
seq_id_string OH_3T_example 
tp 0.1 

# Format of blocks:
#  #  D RF  GX  GY  GZ ADC EXT
[BLOCKS]
  1  1  0   0   0   0  0  0
  2  0  1   0   0   0  0  0
  3  0  2   0   0   0  0  0
  4  0  3   0   0   0  0  0
  5  0  0   1   1   1  0  0
  6  0  0   0   0   0  1  0
  7  1  0   0   0   0  0  0
  8  0  4   0   0   0  0  0
  9  0  5   0   0   0  0  0
 10  0  6   0   0   0  0  0
 11  0  0   1   1   1  0  0
 12  0  0   0   0   0  1  0
 13  1  0   0   0   0  0  0
 14  0  7   0   0   0  0  0
 15  0  8   0   0   0  0  0
 16  0  9   0   0   0  0  0
 17  0  0   1   1   1  0  0
 18  0  0   0   0   0  1  0
 19  1  0   0   0   0  0  0
 20  0 10   0   0   0  0  0
 21  0 11   0   0   0  0  0
 22  0 12   0   0   0  0  0
 23  0  0   1   1   1  0  0
 24  0  0   0   0   0  1  0
 25  1  0   0   0   0  0  0
 26  0 13   0   0   0  0  0
 27  0 14   0   0   0  0  0
 28  0 15   0   0   0  0  0
 29  0  0   1   1   1  0  0
 30  0  0   0   0   0  1  0
 31  1  0   0   0   0  0  0
 32  0 16   0   0   0  0  0
 33  0 17   0   0   0  0  0
 34  0 18   0   0   0  0  0
 35  0  0   1   1   1  0  0
 36  0  0   0   0   0  1  0
 37  1  0   0   0   0  0  0
 38  0 19   0   0   0  0  0
 39  0 20   0   0   0  0  0
 40  0 21   0   0   0  0  0
 41  0  0   1   1   1  0  0
 42  0  0   0   0   0  1  0
 43  1  0   0   0   0  0  0
 44  0 22   0   0   0  0  0
 45  0 23   0   0   0  0  0
 46  0 24   0   0   0  0  0
 47  0  0   1   1   1  0  0
 48  0  0   0   0   0  1  0
 49  1  0   0   0   0  0  0
 50  0 25   0   0   0  0  0
 51  0 26   0   0   0  0  0
 52  0 27   0   0   0  0  0
 53  0  0   1   1   1  0  0
 54  0  0   0   0   0  1  0
 55  1  0   0   0   0  0  0
 56  0 28   0   0   0  0  0
 57  0 29   0   0   0  0  0
 58  0 30   0   0   0  0  0
 59  0  0   1   1   1  0  0
 60  0  0   0   0   0  1  0
 61  1  0   0   0   0  0  0
 62  0 31   0   0   0  0  0
 63  0 32   0   0   0  0  0
 64  0 33   0   0   0  0  0
 65  0  0   1   1   1  0  0
 66  0  0   0   0   0  1  0
 67  1  0   0   0   0  0  0
 68  0 34   0   0   0  0  0
 69  0 35   0   0   0  0  0
 70  0 36   0   0   0  0  0
 71  0  0   1   1   1  0  0
 72  0  0   0   0   0  1  0
 73  1  0   0   0   0  0  0
 74  0 37   0   0   0  0  0
 75  0 38   0   0   0  0  0
 76  0 39   0   0   0  0  0
 77  0  0   1   1   1  0  0
 78  0  0   0   0   0  1  0
 79  1  0   0   0   0  0  0
 80  0 40   0   0   0  0  0
 81  0 41   0   0   0  0  0
 82  0 42   0   0   0  0  0
 83  0  0   1   1   1  0  0
 84  0  0   0   0   0  1  0
 85  1  0   0   0   0  0  0
 86  0 43   0   0   0  0  0
 87  0 44   0   0   0  0  0
 88  0 45   0   0   0  0  0
 89  0  0   1   1   1  0  0
 90  0  0   0   0   0  1  0
 91  1  0   0   0   0  0  0
 92  0 46   0   0   0  0  0
 93  0 47   0   0   0  0  0
 94  0 48   0   0   0  0  0
 95  0  0   1   1   1  0  0
 96  0  0   0   0   0  1  0
 97  1  0   0   0   0  0  0
 98  0 49   0   0   0  0  0
 99  0 50   0   0   0  0  0
100  0 51   0   0   0  0  0
101  0  0   1   1   1  0  0
102  0  0   0   0   0  1  0
103  1  0   0   0   0  0  0
104  0 52   0   0   0  0  0
105  0 53   0   0   0  0  0
106  0 54   0   0   0  0  0
107  0  0   1   1   1  0  0
108  0  0   0   0   0  1  0
109  1  0   0   0   0  0  0
110  0 55   0   0   0  0  0
111  0 56   0   0   0  0  0
112  0 57   0   0   0  0  0
113  0  0   1   1   1  0  0
114  0  0   0   0   0  1  0
115  1  0   0   0   0  0  0
116  0 58   0   0   0  0  0
117  0 59   0   0   0  0  0
118  0 60   0   0   0  0  0
119  0  0   1   1   1  0  0
120  0  0   0   0   0  1  0
121  1  0   0   0   0  0  0
122  0 61   0   0   0  0  0
123  0 62   0   0   0  0  0
124  0 63   0   0   0  0  0
125  0  0   1   1   1  0  0
126  0  0   0   0   0  1  0
127  1  0   0   0   0  0  0
128  0 64   0   0   0  0  0
129  0 65   0   0   0  0  0
130  0 66   0   0   0  0  0
131  0  0   1   1   1  0  0
132  0  0   0   0   0  1  0
133  1  0   0   0   0  0  0
134  0 67   0   0   0  0  0
135  0 68   0   0   0  0  0
136  0 69   0   0   0  0  0
137  0  0   1   1   1  0  0
138  0  0   0   0   0  1  0
139  1  0   0   0   0  0  0
140  0 70   0   0   0  0  0
141  0 71   0   0   0  0  0
142  0 72   0   0   0  0  0
143  0  0   1   1   1  0  0
144  0  0   0   0   0  1  0
145  1  0   0   0   0  0  0
146  0 73   0   0   0  0  0
147  0 74   0   0   0  0  0
148  0 75   0   0   0  0  0
149  0  0   1   1   1  0  0
150  0  0   0   0   0  1  0

# Format of RF events:
# id amplitude mag_id phase_id delay freq phase
# ..        Hz   ....     ....    us   Hz   rad
[RF]
1      170.306 1 2 100 -38318.8 0
2      170.306 3 4 100 -38318.8 1.0988
3      170.306 5 6 100 -38318.8 1.87792
4      170.306 1 2 100 -510.917 0
5      170.306 3 4 100 -510.917 5.46008
6      170.306 5 6 100 -510.917 4.88404
7      170.306 1 2 100 -466.489 0
8      170.306 3 4 100 -466.489 2.52665
9      170.306 5 6 100 -466.489 4.73252
10      170.306 1 2 100 -422.062 0
11      170.306 3 4 100 -422.062 5.87641
12      170.306 5 6 100 -422.062 4.581
13      170.306 1 2 100 -377.634 0
14      170.306 3 4 100 -377.634 2.94298
15      170.306 5 6 100 -377.634 4.42949
16      170.306 1 2 100 -333.207 0
17      170.306 3 4 100 -333.207 0.00955481
18      170.306 5 6 100 -333.207 4.27797
19      170.306 1 2 100 -288.779 0
20      170.306 3 4 100 -288.779 3.35931
21      170.306 5 6 100 -288.779 4.12645
22      170.306 1 2 100 -244.352 0
23      170.306 3 4 100 -244.352 0.425886
24      170.306 5 6 100 -244.352 3.97493
25      170.306 1 2 100 -199.924 0
26      170.306 3 4 100 -199.924 3.77564
27      170.306 5 6 100 -199.924 3.82342
28      170.306 1 2 100 -155.496 0
29      170.306 3 4 100 -155.496 0.842217
30      170.306 5 6 100 -155.496 3.6719
31      170.306 1 2 100 -111.069 0
32      170.306 3 4 100 -111.069 4.19198
33      170.306 5 6 100 -111.069 3.52038
34      170.306 1 2 100 -66.6413 0
35      170.306 3 4 100 -66.6413 1.25855
36      170.306 5 6 100 -66.6413 3.36887
37      170.306 1 2 100 -22.2138 0
38      170.306 3 4 100 -22.2138 4.60831
39      170.306 5 6 100 -22.2138 3.21735
40      170.306 1 7 100 22.2138 0
41      170.306 3 4 100 22.2138 1.67488
42      170.306 5 8 100 22.2138 3.06583
43      170.306 1 7 100 66.6413 0
44      170.306 3 4 100 66.6413 5.02464
45      170.306 5 8 100 66.6413 2.91432
46      170.306 1 7 100 111.069 0
47      170.306 3 4 100 111.069 2.09121
48      170.306 5 8 100 111.069 2.7628
49      170.306 1 7 100 155.496 0
50      170.306 3 4 100 155.496 5.44097
51      170.306 5 8 100 155.496 2.61128
52      170.306 1 7 100 199.924 0
53      170.306 3 4 100 199.924 2.50754
54      170.306 5 8 100 199.924 2.45977
55      170.306 1 7 100 244.352 0
56      170.306 3 4 100 244.352 5.8573
57      170.306 5 8 100 244.352 2.30825
58      170.306 1 7 100 288.779 0
59      170.306 3 4 100 288.779 2.92387
60      170.306 5 8 100 288.779 2.15673
61      170.306 1 7 100 333.207 0
62      170.306 3 4 100 333.207 6.27363
63      170.306 5 8 100 333.207 2.00522
64      170.306 1 7 100 377.634 0
65      170.306 3 4 100 377.634 3.3402
66      170.306 5 8 100 377.634 1.8537
67      170.306 1 7 100 422.062 0
68      170.306 3 4 100 422.062 0.406776
69      170.306 5 8 100 422.062 1.70218
70      170.306 1 7 100 466.489 0
71      170.306 3 4 100 466.489 3.75653
72      170.306 5 8 100 466.489 1.55067
73      170.306 1 7 100 510.917 0
74      170.306 3 4 100 510.917 0.823107
75      170.306 5 8 100 510.917 1.39915

# Format of trapezoid gradients:
# id amplitude rise flat fall delay
# ..      Hz/m   us   us   us    us
[TRAP]
 1  1.36243e+06 1000 4500 1000   0

# Format of ADC events:
# id num dwell delay freq phase
# ..  ..    ns    us   Hz   rad
[ADC]
1 1 1000000 0 0 0

# Format of delays:
# id delay (us)
[DELAYS]
1 5000000

# Sequence Shapes
[SHAPES]

shape_id 1
num_samples 12000
0
1e-07
2e-07
2e-07
0
3e-07
4e-07
4e-07
0
5e-07
5e-07
0
6e-07
7e-07
7e-07
0
9e-07
8e-07
1e-06
1e-06
1
1.2e-06
1.2e-06
1
1.4e-06
1.3e-06
1.5e-06
1.5e-06
0
1.6e-06
1.7e-06
1.7e-06
0
1.8e-06
1.8e-06
0
1.9e-06
2e-06
2e-06
0
2.2e-06
2.1e-06
2.3e-06
2.3e-06
1
2.5e-06
2.5e-06
1
2.7e-06
2.7e-06
1
2.9e-06
2.9e-06
1
3e-06
3.1e-06
3.2e-06
3.2e-06
0
3.3e-06
3.4e-06
3.4e-06
0
3.5e-06
3.5e-06
0
3.6e-06
3.7e-06
3.8e-06
3.8e-06
0
3.9e-06
3.9e-06
0
4e-06
4.1e-06
4.2e-06
4.2e-06
1
4.4e-06
4.4e-06
0
4.5e-06
4.5e-06
0
4.6e-06
4.7e-06
4.8e-06
4.8e-06
0
4.9e-06
4.9e-06
0
5e-06
5.1e-06
5.1e-06
0
5.2e-06
5.3e-06
5.4e-06
5.4e-06
0
5.5e-06
5.5e-06
0
5.6e-06
5.7e-06
5.8e-06
5.8e-06
0
5.9e-06
5.9e-06
0
6e-06
6.1e-06
6.2e-06
6.2e-06
0
6.3e-06
6.3e-06
0
6.5e-06
6.4e-06
6.6e-06
6.6e-06
0
6.7e-06
6.8e-06
6.8e-06
0
6.9e-06
7e-06
7e-06
0
7.1e-06
7.2e-06
7.2e-06
0
7.3e-06
7.4e-06
7.4e-06
0
7.5e-06
7.6e-06
7.7e-06
7.7e-06
0
7.8e-06
7.8e-06
0
8e-06
7.9e-06
8.1e-06
8.1e-06
0
8.2e-06
8.3e-06
8.3e-06
0
8.4e-06
8.5e-06
8.5e-06
0
8.7e-06
8.6e-06
8.8e-06
8.8e-06
0
8.9e-06
8.9e-06
0
9.1e-06
9.1e-06
1
9.3e-06
9.3e-06
0
9.4e-06
9.4e-06
0
9.5e-06
9.6e-06
9.6e-06
0
9.8e-06
9.8e-06
1
1e-05
1e-05
1
1.02e-05
1.02e-05
0
1.03e-05
1.03e-05
0
1.05e-05
1.05e-05
1
1.07e-05
1.07e-05
0
1.08e-05
1.08e-05
0
1.09e-05
1.1e-05
1.11e-05
1.11e-05
0
1.12e-05
1.13e-05
1.14e-05
1.14e-05
0
1.15e-05
1.15e-05
0
1.17e-05
1.17e-05
0
1.18e-05
1.18e-05
0
1.19e-05
1.2e-05
1.21e-05
1.21e-05
0
1.22e-05
1.23e-05
1.24e-05
1.24e-05
0
1.25e-05
1.26e-05
1.26e-05
0
1.27e-05
1.28e-05
1.29e-05
1.29e-05
0
1.3e-05
1.31e-05
1.31e-05
0
1.33e-05
1.33e-05
1
1.35e-05
1.35e-05
0
1.36e-05
1.36e-05
0
1.38e-05
1.38e-05
0
1.39e-05
1.39e-05
0
1.41e-05
1.41e-05
1
1.43e-05
1.43e-05
0
1.44e-05
1.45e-05
1.45e-05
0
1.47e-05
1.47e-05
1
1.49e-05
1.49e-05
0
1.5e-05
1.51e-05
1.51e-05
0
1.52e-05
1.53e-05
1.54e-05
1.54e-05
0
1.56e-05
1.56e-05
1
1.58e-05
1.58e-05
0
1.59e-05
1.6e-05
1.6e-05
0
1.61e-05
1.62e-05
1.63e-05
1.64e-05
1.64e-05
0
1.65e-05
1.66e-05
1.66e-05
0
1.68e-05
1.68e-05
1
1.7e-05
1.7e-05
0
1.72e-05
1.71e-05
1.73e-05
1.74e-05
1.74e-05
0
1.75e-05
1.76e-05
1.76e-05
0
1.77e-05
1.78e-05
1.79e-05
1.8e-05
1.8e-05
0
1.82e-05
1.81e-05
1.83e-05
1.84e-05
1.84e-05
0
1.85e-05
1.86e-05
1.87e-05
1.87e-05
0
1.88e-05
1.89e-05
1.9e-05
1.91e-05
1.91e-05
0
1.92e-05
1.93e-05
1.94e-05
1.94e-05
0
1.96e-05
1.96e-05
0
1.97e-05
1.97e-05
0
1.99e-05
1.99e-05
0
2e-05
2.01e-05
2.02e-05
2.02e-05
0
2.04e-05
2.04e-05
0
2.05e-05
2.05e-05
0
2.07e-05
2.07e-05
0
2.08e-05
2.09e-05
2.1e-05
2.1e-05
0
2.12e-05
2.12e-05
0
2.13e-05
2.14e-05
2.14e-05
0
2.16e-05
2.16e-05
0
2.17e-05
2.18e-05
2.18e-05
0
2.2e-05
2.2e-05
0
2.21e-05
2.22e-05
2.23e-05
2.24e-05
2.24e-05
0
2.25e-05
2.26e-05
2.27e-05
2.28e-05
2.28e-05
0
2.3e-05
2.3e-05
0
2.31e-05
2.32e-05
2.33e-05
2.33e-05
0
2.35e-05
2.35e-05
0
2.36e-05
2.37e-05
2.38e-05
2.38e-05
0
2.4e-05
2.4e-05
0
2.41e-05
2.42e-05
2.43e-05
2.43e-05
0
2.45e-05
2.45e-05
0
2.46e-05
2.47e-05
2.48e-05
2.49e-05
2.5e-05
2.5e-05
0
2.51e-05
2.52e-05
2.53e-05
2.54e-05
2.55e-05
2.56e-05
2.56e-05
0
2.57e-05
2.59e-05
2.59e-05
0
2.6e-05
2.6e-05
0
2.62e-05
2.62e-05
0
2.64e-05
2.64e-05
0
2.65e-05
2.66e-05
2.67e-05
2.68e-05
2.68e-05
0
2.7e-05
2.7e-05
0
2.71e-05
2.73e-05
2.73e-05
1
2.75e-05
2.76e-05
2.76e-05
0
2.78e-05
2.78e-05
0
2.79e-05
2.8e-05
2.81e-05
2.82e-05
2.83e-05
2.84e-05
2.84e-05
0
2.86e-05
2.86e-05
0
2.87e-05
2.88e-05
2.89e-05
2.9e-05
2.91e-05
2.92e-05
2.93e-05
2.93e-05
0
2.95e-05
2.95e-05
0
2.96e-05
2.97e-05
2.99e-05
2.99e-05
1
3.01e-05
3.02e-05
3.03e-05
3.03e-05
0
3.05e-05
3.05e-05
0
3.07e-05
3.07e-05
0
3.08e-05
3.09e-05
3.1e-05
3.11e-05
3.12e-05
3.13e-05
3.14e-05
3.14e-05
0
3.16e-05
3.16e-05
0
3.18e-05
3.18e-05
0
3.2e-05
3.2e-05
0
3.21e-05
3.22e-05
3.23e-05
3.24e-05
3.25e-05
3.26e-05
3.27e-05
3.28e-05
3.29e-05
3.3e-05
3.3e-05
0
3.32e-05
3.32e-05
0
3.34e-05
3.34e-05
0
3.36e-05
3.36e-05
0
3.38e-05
3.38e-05
0
3.39e-05
3.4e-05
3.42e-05
3.42e-05
0
3.43e-05
3.44e-05
3.45e-05
3.46e-05
3.47e-05
3.48e-05
3.49e-05
3.5e-05
3.51e-05
3.52e-05
3.53e-05
3.53e-05
0
3.55e-05
3.56e-05
3.57e-05
3.58e-05
3.58e-05
0
3.6e-05
3.61e-05
3.62e-05
3.62e-05
0
3.64e-05
3.65e-05
3.65e-05
0
3.67e-05
3.68e-05
3.68e-05
0
3.7e-05
3.71e-05
3.71e-05
0
3.73e-05
3.74e-05
3.74e-05
0
3.76e-05
3.77e-05
3.77e-05
0
3.79e-05
3.8e-05
3.8e-05
0
3.82e-05
3.83e-05
3.84e-05
3.84e-05
0
3.86e-05
3.87e-05
3.88e-05
3.89e-05
3.9e-05
3.9e-05
0
3.92e-05
3.93e-05
3.94e-05
3.95e-05
3.96e-05
3.98e-05
3.98e-05
0
3.99e-05
4e-05
4.01e-05
4.02e-05
4.04e-05
4.04e-05
0
4.05e-05
4.07e-05
4.07e-05
0
4.09e-05
4.09e-05
0
4.11e-05
4.12e-05
4.12e-05
0
4.14e-05
4.15e-05
4.16e-05
4.17e-05
4.18e-05
4.19e-05
4.2e-05
4.21e-05
4.22e-05
4.24e-05
4.24e-05
0
4.26e-05
4.26e-05
0
4.28e-05
4.28e-05
0
4.3e-05
4.31e-05
4.32e-05
4.33e-05
4.34e-05
4.35e-05
4.36e-05
4.37e-05
4.39e-05
4.39e-05
0
4.4e-05
4.42e-05
4.43e-05
4.44e-05
4.44e-05
0
4.46e-05
4.47e-05
4.49e-05
4.49e-05
0
4.5e-05
4.52e-05
4.52e-05
0
4.54e-05
4.55e-05
4.55e-05
0
4.57e-05
4.58e-05
4.6e-05
4.6e-05
0
4.61e-05
4.63e-05
4.63e-05
0
4.65e-05
4.66e-05
4.67e-05
4.68e-05
4.69e-05
4.71e-05
4.71e-05
0
4.73e-05
4.73e-05
0
4.75e-05
4.76e-05
4.77e-05
4.78e-05
4.8e-05
4.8e-05
0
4.82e-05
4.83e-05
4.84e-05
4.85e-05
4.86e-05
4.87e-05
4.89e-05
4.89e-05
0
4.91e-05
4.92e-05
4.93e-05
4.94e-05
4.96e-05
4.96e-05
0
4.98e-05
4.99e-05
5e-05
5.01e-05
5.02e-05
5.04e-05
5.04e-05
0
5.06e-05
5.07e-05
5.08e-05
5.09e-05
5.11e-05
5.11e-05
0
5.13e-05
5.14e-05
5.15e-05
5.17e-05
5.17e-05
0
5.19e-05
5.2e-05
5.21e-05
5.22e-05
5.24e-05
5.24e-05
0
5.26e-05
5.27e-05
5.28e-05
5.3e-05
5.3e-05
0
5.32e-05
5.33e-05
5.34e-05
5.36e-05
5.36e-05
0
5.38e-05
5.39e-05
5.4e-05
5.42e-05
5.42e-05
0
5.44e-05
5.45e-05
5.46e-05
5.48e-05
5.49e-05
5.5e-05
5.51e-05
5.52e-05
5.54e-05
5.54e-05
0
5.56e-05
5.58e-05
5.58e-05
0
5.6e-05
5.61e-05
5.62e-05
5.63e-05
5.65e-05
5.66e-05
5.67e-05
5.68e-05
5.7e-05
5.71e-05
5.72e-05
5.73e-05
5.74e-05
5.76e-05
5.77e-05
5.79e-05
5.79e-05
0
5.81e-05
5.82e-05
5.83e-05
5.85e-05
5.86e-05
5.87e-05
5.88e-05
5.9e-05
5.91e-05
5.92e-05
5.93e-05
5.95e-05
5.96e-05
5.97e-05
5.99e-05
6e-05
6.01e-05
6.02e-05
6.04e-05
6.05e-05
6.06e-05
6.07e-05
6.09e-05
6.1e-05
6.11e-05
6.13e-05
6.14e-05
6.15e-05
6.17e-05
6.18e-05
6.19e-05
6.2e-05
6.22e-05
6.23e-05
6.24e-05
6.26e-05
6.27e-05
6.28e-05
6.29e-05
6.31e-05
6.32e-05
6.34e-05
6.35e-05
6.36e-05
6.37e-05
6.39e-05
6.4e-05
6.41e-05
6.43e-05
6.44e-05
6.46e-05
6.46e-05
0
6.48e-05
6.5e-05
6.5e-05
0
6.52e-05
6.54e-05
6.54e-05
0
6.56e-05
6.58e-05
6.59e-05
6.6e-05
6.61e-05
6.63e-05
6.64e-05
6.65e-05
6.67e-05
6.68e-05
6.7e-05
6.71e-05
6.72e-05
6.74e-05
6.75e-05
6.76e-05
6.78e-05
6.79e-05
6.8e-05
6.82e-05
6.83e-05
6.84e-05
6.86e-05
6.88e-05
6.88e-05
0
6.9e-05
6.92e-05
6.92e-05
0
6.95e-05
6.95e-05
0
6.97e-05
6.98e-05
7e-05
7.01e-05
7.03e-05
7.03e-05
0
7.06e-05
7.06e-05
0
7.08e-05
7.1e-05
7.11e-05
7.12e-05
7.14e-05
7.15e-05
7.16e-05
7.18e-05
7.19e-05
7.21e-05
7.22e-05
7.24e-05
7.24e-05
0
7.27e-05
7.28e-05
7.29e-05
7.3e-05
7.32e-05
7.34e-05
7.35e-05
7.36e-05
7.38e-05
7.39e-05
7.4e-05
7.42e-05
7.44e-05
7.45e-05
7.46e-05
7.48e-05
7.49e-05
7.5e-05
7.53e-05
7.53e-05
0
7.55e-05
7.56e-05
7.58e-05
7.6e-05
7.6e-05
0
7.63e-05
7.63e-05
0
7.65e-05
7.67e-05
7.68e-05
7.69e-05
7.71e-05
7.73e-05
7.74e-05
7.75e-05
7.77e-05
7.78e-05
7.8e-05
7.81e-05
7.83e-05
7.84e-05
7.86e-05
7.87e-05
7.89e-05
7.9e-05
7.91e-05
7.93e-05
7.95e-05
7.96e-05
7.98e-05
7.99e-05
8e-05
8.02e-05
8.04e-05
8.05e-05
8.06e-05
8.08e-05
8.1e-05
8.11e-05
8.12e-05
8.14e-05
8.16e-05
8.17e-05
8.18e-05
8.2e-05
8.22e-05
8.23e-05
8.25e-05
8.26e-05
8.27e-05
8.29e-05
8.31e-05
8.32e-05
8.34e-05
8.35e-05
8.37e-05
8.38e-05
8.4e-05
8.42e-05
8.42e-05
0
8.45e-05
8.46e-05
8.47e-05
8.49e-05
8.51e-05
8.52e-05
8.54e-05
8.55e-05
8.57e-05
8.58e-05
8.6e-05
8.61e-05
8.63e-05
8.65e-05
8.66e-05
8.68e-05
8.69e-05
8.71e-05
8.72e-05
8.74e-05
8.75e-05
8.77e-05
8.79e-05
8.8e-05
8.82e-05
8.83e-05
8.85e-05
8.87e-05
8.88e-05
8.89e-05
8.91e-05
8.93e-05
8.94e-05
8.96e-05
8.98e-05
8.99e-05
9.01e-05
9.02e-05
9.04e-05
9.05e-05
9.07e-05
9.09e-05
9.1e-05
9.12e-05
9.14e-05
9.15e-05
9.16e-05
9.19e-05
9.2e-05
9.21e-05
9.23e-05
9.25e-05
9.26e-05
9.28e-05
9.3e-05
9.31e-05
9.32e-05
9.35e-05
9.36e-05
9.37e-05
9.4e-05
9.41e-05
9.42e-05
9.44e-05
9.46e-05
9.47e-05
9.49e-05
9.51e-05
9.52e-05
9.54e-05
9.56e-05
9.57e-05
9.59e-05
9.6e-05
9.63e-05
9.63e-05
0
9.66e-05
9.67e-05
9.69e-05
9.7e-05
9.72e-05
9.74e-05
9.75e-05
9.77e-05
9.79e-05
9.8e-05
9.82e-05
9.83e-05
9.86e-05
9.87e-05
9.88e-05
9.91e-05
9.92e-05
9.93e-05
9.95e-05
9.97e-05
9.99e-05
0.0001
0.0001002
0.0001004
0.0001005
0.0001007
0.0001009
0.0001011
0.0001012
0.0001013
0.0001016
0.0001017
0.0001019
0.0001021
0.0001022
0.0001024
0.0001025
0.0001028
0.0001029
0.000103
0.0001033
0.0001034
0.0001036
0.0001037
0.000104
0.0001041
0.0001042
0.0001045
0.0001046
0.0001048
0.0001049
0.0001051
0.0001053
0.0001055
0.0001056
0.0001059
0.0001059
0
0.0001062
0.0001063
0.0001065
0.0001067
0.0001069
0.000107
0.0001072
0.0001074
0.0001075
0.0001077
0.0001079
0.0001081
0.0001082
0.0001084
0.0001086
0.0001088
0.0001089
0.0001091
0.0001093
0.0001095
0.0001096
0.0001099
0.0001099
0
0.0001102
0.0001104
0.0001105
0.0001107
0.0001108
0.0001111
0.0001112
0.0001114
0.0001116
0.0001117
0.000112
0.0001121
0.0001123
0.0001124
0.0001127
0.0001128
0.000113
0.0001131
0.0001134
0.0001135
0.0001137
0.0001139
0.0001141
0.0001142
0.0001144
0.0001146
0.0001148
0.000115
0.0001151
0.0001153
0.0001155
0.0001157
0.0001159
0.000116
0.0001162
0.0001164
0.0001166
0.0001168
0.0001169
0.0001171
0.0001173
0.0001175
0.0001177
0.0001178
0.000118
0.0001182
0.0001184
0.0001186
0.0001188
0.0001189
0.0001191
0.0001193
0.0001195
0.0001196
0.0001199
0.00012
0.0001202
0.0001204
0.0001206
0.0001208
0.0001209
0.0001211
0.0001213
0.0001215
0.0001217
0.0001219
0.000122
0.0001223
0.0001224
0.0001226
0.0001228
0.0001229
0.0001232
0.0001233
0.0001236
0.0001237
0.0001239
0.000124
0.0001243
0.0001245
0.0001246
0.0001248
0.000125
0.0001252
0.0001254
0.0001256
0.0001257
0.000126
0.0001261
0.0001263
0.0001265
0.0001267
0.0001269
0.000127
0.0001273
0.0001274
0.0001276
0.0001279
0.000128
0.0001281
0.0001284
0.0001286
0.0001287
0.000129
0.0001291
0.0001293
0.0001295
0.0001297
0.0001299
0.0001301
0.0001303
0.0001304
0.0001307
0.0001308
0.000131
0.0001312
0.0001314
0.0001316
0.0001318
0.000132
0.0001321
0.0001324
0.0001325
0.0001328
0.0001329
0.0001331
0.0001333
0.0001335
0.0001337
0.0001339
0.000134
0.0001343
0.0001345
0.0001346
0.0001348
0.0001351
0.0001352
0.0001354
0.0001356
0.0001358
0.000136
0.0001362
0.0001364
0.0001365
0.0001368
0.000137
0.0001371
0.0001373
0.0001376
0.0001377
0.0001379
0.0001381
0.0001384
0.0001385
0.0001386
0.0001389
0.0001391
0.0001393
0.0001395
0.0001396
0.0001399
0.0001401
0.0001402
0.0001405
0.0001406
0.0001408
0.0001411
0.0001412
0.0001414
0.0001416
0.0001418
0.0001421
0.0001422
0.0001424
0.0001425
0.0001428
0.000143
0.0001432
0.0001434
0.0001436
0.0001437
0.000144
0.0001442
0.0001443
0.0001446
0.0001447
0.000145
0.0001452
0.0001453
0.0001455
0.0001458
0.0001459
0.0001462
0.0001463
0.0001465
0.0001468
0.0001469
0.0001471
0.0001473
0.0001476
0.0001477
0.0001479
0.0001481
0.0001483
0.0001485
0.0001488
0.0001489
0.0001491
0.0001493
0.0001495
0.0001497
0.0001499
0.0001501
0.0001503
0.0001505
0.0001507
0.0001509
0.0001511
0.0001513
0.0001515
0.0001517
0.0001519
0.0001521
0.0001523
0.0001526
0.0001527
0.0001529
0.0001531
0.0001533
0.0001535
0.0001537
0.0001539
0.0001541
0.0001543
0.0001545
0.0001547
0.0001549
0.0001552
0.0001553
0.0001555
0.0001557
0.0001559
0.0001562
0.0001563
0.0001565
0.0001567
0.000157
0.0001571
0.0001573
0.0001576
0.0001577
0.0001579
0.0001582
0.0001583
0.0001586
0.0001587
0.000159
0.0001591
0.0001594
0.0001596
0.0001597
0.00016
0.0001602
0.0001603
0.0001606
0.0001608
0.000161
0.0001612
0.0001614
0.0001615
0.0001618
0.000162
0.0001623
0.0001624
0.0001626
0.0001628
0.000163
0.0001632
0.0001635
0.0001636
0.0001638
0.0001641
0.0001642
0.0001645
0.0001646
0.0001649
0.0001651
0.0001652
0.0001655
0.0001657
0.0001659
0.0001661
0.0001663
0.0001665
0.0001667
0.0001669
0.0001671
0.0001673
0.0001675
0.0001678
0.0001679
0.0001682
0.0001683
0.0001686
0.0001687
0.000169
0.0001692
0.0001693
0.0001696
0.0001698
0.00017
0.0001702
0.0001704
0.0001706
0.0001708
0.0001711
0.0001712
0.0001714
0.0001717
0.0001718
0.0001721
0.0001723
0.0001724
0.0001727
0.0001729
0.0001731
0.0001733
0.0001735
0.0001737
0.0001739
0.0001741
0.0001744
0.0001745
0.0001748
0.0001749
0.0001752
0.0001753
0.0001756
0.0001758
0.000176
0.0001762
0.0001764
0.0001766
0.0001768
0.0001771
0.0001772
0.0001774
0.0001777
0.0001779
0.000178
0.0001783
0.0001785
0.0001787
0.0001789
0.0001791
0.0001793
0.0001795
0.0001797
0.00018
0.0001801
0.0001804
0.0001805
0.0001808
0.000181
0.0001812
0.0001814
0.0001816
0.0001818
0.000182
0.0001822
0.0001825
0.0001826
0.0001829
0.000183
0.0001833
0.0001835
0.0001837
0.0001839
0.0001841
0.0001843
0.0001845
0.0001848
0.0001849
0.0001852
0.0001853
0.0001856
0.0001858
0.000186
0.0001862
0.0001864
0.0001866
0.0001868
0.000187
0.0001873
0.0001874
0.0001877
0.0001878
0.0001881
0.0001883
0.0001885
0.0001887
0.0001889
0.0001891
0.0001894
0.0001895
0.0001898
0.0001899
0.0001902
0.0001904
0.0001906
0.0001908
0.000191
0.0001912
0.0001914
0.0001916
0.0001919
0.000192
0.0001923
0.0001925
0.0001927
0.0001928
0.0001931
0.0001934
0.0001935
0.0001937
0.0001939
0.0001942
0.0001944
0.0001945
0.0001948
0.000195
0.0001952
0.0001954
0.0001956
0.0001958
0.0001961
0.0001962
0.0001965
0.0001966
0.0001969
0.0001971
0.0001973
0.0001975
0.0001977
0.0001979
0.0001981
0.0001984
0.0001985
0.0001988
0.0001989
0.0001992
0.0001994
0.0001996
0.0001998
0.0002
0.0002002
0.0002005
0.0002006
0.0002009
0.000201
0.0002013
0.0002015
0.0002017
0.0002019
0.0002021
0.0002023
0.0002025
0.0002028
0.0002029
0.0002032
0.0002033
0.0002036
0.0002038
0.000204
0.0002042
0.0002044
0.0002046
0.0002049
0.000205
0.0002053
0.0002054
0.0002057
0.0002059
0.000206
0.0002063
0.0002066
0.0002067
0.0002069
0.0002071
0.0002074
0.0002075
0.0002078
0.0002079
0.0002082
0.0002084
0.0002086
0.0002088
0.000209
0.0002092
0.0002095
0.0002096
0.0002099
0.00021
0.0002103
0.0002105
0.0002106
0.0002109
0.0002111
0.0002113
0.0002116
0.0002117
0.0002119
0.0002122
0.0002123
0.0002126
0.0002127
0.000213
0.0002132
0.0002134
0.0002136
0.0002138
0.000214
0.0002142
0.0002145
0.0002146
0.0002149
0.000215
0.0002153
0.0002155
0.0002156
0.0002159
0.0002161
0.0002163
0.0002165
0.0002168
0.0002169
0.0002171
0.0002174
0.0002175
0.0002178
0.0002179
0.0002182
0.0002184
0.0002186
0.0002188
0.000219
0.0002192
0.0002194
0.0002196
0.0002198
0.0002201
0.0002202
0.0002205
0.0002206
0.0002209
0.000221
0.0002213
0.0002215
0.0002217
0.0002219
0.0002221
0.0002223
0.0002225
0.0002227
0.000223
0.0002231
0.0002233
0.0002236
0.0002237
0.000224
0.0002241
0.0002244
0.0002246
0.0002248
0.000225
0.0002251
0.0002254
0.0002256
0.0002258
0.0002261
0.0002262
0.0002264
0.0002266
0.0002269
0.000227
0.0002272
0.0002275
0.0002276
0.0002279
0.0002281
0.0002282
0.0002285
0.0002287
0.0002288
0.0002291
0.0002293
0.0002295
0.0002297
0.0002299
0.0002301
0.0002303
0.0002305
0.0002307
0.000231
0.0002311
0.0002313
0.0002315
0.0002318
0.0002319
0.0002321
0.0002324
0.0002325
0.0002328
0.0002329
0.0002332
0.0002333
0.0002336
0.0002338
0.0002339
0.0002342
0.0002343
0.0002346
0.0002348
0.000235
0.0002351
0.0002354
0.0002356
0.0002358
0.000236
0.0002361
0.0002364
0.0002366
0.0002368
0.000237
0.0002372
0.0002374
0.0002376
0.0002378
0.000238
0.0002381
0.0002384
0.0002386
0.0002388
0.000239
0.0002392
0.0002394
0.0002396
0.0002398
0.00024
0.0002402
0.0002404
0.0002406
0.0002408
0.000241
0.0002412
0.0002414
0.0002415
0.0002418
0.000242
0.0002422
0.0002424
0.0002426
0.0002428
0.0002429
0.0002432
0.0002434
0.0002436
0.0002437
0.000244
0.0002442
0.0002443
0.0002446
0.0002447
0.000245
0.0002451
0.0002454
0.0002455
0.0002458
0.0002459
0.0002462
0.0002463
0.0002465
0.0002467
0.000247
0.0002471
0.0002473
0.0002475
0.0002477
0.0002479
0.0002481
0.0002483
0.0002485
0.0002486
0.0002489
0.0002491
0.0002493
0.0002494
0.0002497
0.0002498
0.00025
0.0002503
0.0002504
0.0002506
0.0002508
0.0002511
0.0002512
0.0002513
0.0002516
0.0002518
0.000252
0.0002522
0.0002523
0.0002526
0.0002527
0.000253
0.0002531
0.0002533
0.0002535
0.0002537
0.0002539
0.0002541
0.0002543
0.0002544
0.0002547
0.0002549
0.000255
0.0002552
0.0002554
0.0002557
0.0002558
0.000256
0.0002561
0.0002564
0.0002566
0.0002567
0.000257
0.0002571
0.0002573
0.0002575
0.0002577
0.0002579
0.0002581
0.0002582
0.0002585
0.0002586
0.0002589
0.000259
0.0002592
0.0002594
0.0002595
0.0002598
0.0002599
0.0002602
0.0002603
0.0002605
0.0002607
0.0002609
0.0002611
0.0002612
0.0002615
0.0002616
0.0002618
0.000262
0.0002622
0.0002623
0.0002626
0.0002627
0.0002629
0.0002631
0.0002633
0.0002635
0.0002637
0.0002638
0.000264
0.0002642
0.0002644
0.0002646
0.0002648
0.0002649
0.0002651
0.0002653
0.0002655
0.0002657
0.0002658
0.0002661
0.0002662
0.0002664
0.0002665
0.0002668
0.0002669
0.0002672
0.0002673
0.0002674
0.0002677
0.0002678
0.000268
0.0002682
0.0002684
0.0002686
0.0002687
0.0002689
0.0002691
0.0002693
0.0002695
0.0002696
0.0002698
0.00027
0.0002701
0.0002704
0.0002705
0.0002707
0.0002709
0.000271
0.0002713
0.0002714
0.0002715
0.0002718
0.0002719
0.0002721
0.0002723
0.0002725
0.0002726
0.0002728
0.000273
0.0002731
0.0002734
0.0002735
0.0002737
0.0002738
0.000274
0.0002742
0.0002744
0.0002746
0.0002747
0.0002749
0.000275
0.0002753
0.0002754
0.0002756
0.0002757
0.000276
0.000276
0
0.0002763
0.0002765
0.0002766
0.0002767
0.000277
0.0002771
0.0002773
0.0002775
0.0002776
0.0002778
0.000278
0.0002781
0.0002783
0.0002785
0.0002786
0.0002788
0.000279
0.0002791
0.0002794
0.0002794
0
0.0002797
0.0002798
0.00028
0.0002801
0.0002803
0.0002805
0.0002807
0.0002808
0.0002809
0.0002812
0.0002813
0.0002815
0.0002816
0.0002818
0.000282
0.0002821
0.0002823
0.0002824
0.0002827
0.0002827
0
0.000283
0.0002831
0.0002833
0.0002834
0.0002836
0.0002837
0.0002839
0.0002841
0.0002843
0.0002844
0.0002845
0.0002847
0.0002849
0.0002851
0.0002852
0.0002853
0.0002855
0.0002857
0.0002858
0.000286
0.0002862
0.0002863
0.0002865
0.0002866
0.0002868
0.0002869
0.0002871
0.0002873
0.0002874
0.0002876
0.0002877
0.0002879
0.000288
0.0002882
0.0002883
0.0002885
0.0002887
0.0002888
0.000289
0.0002891
0.0002892
0.0002895
0.0002895
0
0.0002898
0.0002898
0
0.0002901
0.0002902
0.0002903
0.0002905
0.0002906
0.0002908
0.000291
0.0002911
0.0002912
0.0002914
0.0002916
0.0002917
0.0002918
0.000292
0.0002921
0.0002923
0.0002925
0.0002926
0.0002927
0.0002929
0.000293
0.0002932
0.0002933
0.0002935
0.0002936
0.0002938
0.0002939
0.000294
0.0002942
0.0002944
0.0002945
0.0002946
0.0002948
0.0002949
0.0002951
0.0002952
0.0002954
0.0002955
0.0002956
0.0002958
0.0002959
0.0002961
0.0002962
0.0002964
0.0002965
0.0002966
0.0002968
0.0002969
0.000297
0.0002972
0.0002974
0.0002974
0
0.0002977
0.0002977
0
0.0002979
0.000298
0.0002982
0.0002983
0.0002985
0.0002985
0
0.0002988
0.0002988
0
0.000299
0.0002991
0.0002993
0.0002994
0.0002995
0.0002997
0.0002998
0.0003
0.0003
0
0.0003002
0.0003004
0.0003005
0.0003006
0.0003007
0.0003009
0.000301
0.0003011
0.0003013
0.0003014
0.0003015
0.0003017
0.0003018
0.0003019
0.0003021
0.0003022
0.0003023
0.0003024
0.0003026
0.0003027
0.0003028
0.000303
0.0003031
0.0003032
0.0003033
0.0003035
0.0003036
0.0003037
0.0003038
0.000304
0.0003041
0.0003042
0.0003044
0.0003044
0
0.0003046
0.0003048
0.0003048
0
0.000305
0.0003051
0.0003052
0.0003053
0.0003055
0.0003055
0
0.0003057
0.0003059
0.0003059
0
0.0003061
0.0003062
0.0003063
0.0003064
0.0003065
0.0003067
0.0003068
0.0003069
0.000307
0.0003071
0.0003073
0.0003074
0.0003075
0.0003076
0.0003077
0.0003078
0.000308
0.000308
0
0.0003082
0.0003083
0.0003084
0.0003086
0.0003086
0
0.0003088
0.0003088
0
0.000309
0.0003091
0.0003092
0.0003094
0.0003094
0
0.0003095
0.0003097
0.0003098
0.0003098
0
0.00031
0.0003101
0.0003102
0.0003103
0.0003105
0.0003105
0
0.0003106
0.0003108
0.0003109
0.0003109
0
0.0003111
0.0003112
0.0003113
0.0003114
0.0003114
0
0.0003117
0.0003117
0
0.0003118
0.0003119
0.000312
0.0003121
0.0003123
0.0003123
0
0.0003124
0.0003126
0.0003126
0
0.0003128
0.0003128
0
0.0003129
0.0003131
0.0003131
0
0.0003133
0.0003133
0
0.0003135
0.0003135
0
0.0003137
0.0003137
0
0.0003139
0.0003139
0
0.000314
0.0003142
0.0003142
0
0.0003143
0.0003145
0.0003145
0
0.0003146
0.0003147
0.0003148
0.0003149
0.000315
0.0003151
0.0003152
0.0003153
0.0003153
0
0.0003155
0.0003155
0
0.0003157
0.0003157
0
0.0003158
0.000316
0.000316
0
0.0003161
0.0003162
0.0003162
0
0.0003164
0.0003165
0.0003165
0
0.0003167
0.0003167
0
0.0003168
0.0003169
0.000317
0.000317
0
0.0003172
0.0003172
0
0.0003174
0.0003174
0
0.0003175
0.0003175
0
0.0003177
0.0003178
0.0003178
0
0.0003179
0.000318
0.0003181
0.0003181
0
0.0003183
0.0003183
0
0.0003184
0.0003185
0.0003186
0.0003186
0
0.0003187
0.0003188
0.0003189
0.000319
0.000319
0
0.0003191
0.0003192
0.0003193
0.0003193
0
0.0003195
0.0003194
0.0003196
0.0003197
0.0003197
0
0.0003198
0.0003199
0.0003199
0
0.00032
0.0003201
0.0003202
0.0003202
0
0.0003203
0.0003204
0.0003205
0.0003205
0
0.0003206
0.0003206
0
0.0003208
0.0003208
1
0.000321
0.000321
1
0.0003212
0.0003212
0
0.0003213
0.0003213
0
0.0003214
0.0003215
0.0003215
0
0.0003216
0.0003217
0.0003217
0
0.0003218
0.0003219
0.0003219
0
0.000322
0.000322
0
0.0003221
0.0003222
0.0003222
0
0.0003223
0.0003224
0.0003224
1
0.0003226
0.0003226
1
0.0003227
0.0003228
0.0003228
0
0.0003229
0.0003229
0
0.000323
0.000323
0
0.0003231
0.0003232
0.0003232
0
0.0003233
0.0003233
1
0.0003235
0.0003235
1
0.0003236
0.0003236
0
0.0003237
0.0003237
0
0.0003238
0.0003238
0
0.0003239
0.000324
0.0003239
0.0003241
0.000324
0.0003242
0.0003241
0.0003243
0.0003242
0.0003243
0.0003244
0.0003244
0
0.0003245
0.0003245
1
0.0003246
0.0003246
0
0.0003247
0.0003247
1
0.0003248
0.0003249
0.0003248
0.000325
0.0003249
