# Pulseq sequence file
# Created by MATLAB mr toolbox

[VERSION]
major 1
minor 3
revision 0

[DEFINITIONS]
offsets_ppm -10 -9.48718 -8.97436 -8.46154 -7.94872 -7.4359 -6.92308 -6.41026 -5.89744 -5.38462 -4.87179 -4.35897 -3.84615 -3.33333 -2.82051 -2.30769 -1.79487 -1.28205 -0.769231 -0.25641 0.25641 0.769231 1.28205 1.79487 2.30769 2.82051 3.33333 3.84615 4.35897 4.87179 5.38462 5.89744 6.41026 6.92308 7.4359 7.94872 8.46154 8.97436 9.48718 10 
run_m0_scan 1 

# Format of blocks:
#  #  D RF  GX  GY  GZ ADC EXT
[BLOCKS]
   1  1  0   0   0   0  0  0
   2  0  0   0   0   0  1  0
   3  2  0   0   0   0  0  0
   4  0  1   0   0   0  0  0
   5  3  0   0   0   0  0  0
   6  0  2   0   0   0  0  0
   7  3  0   0   0   0  0  0
   8  0  3   0   0   0  0  0
   9  3  0   0   0   0  0  0
  10  0  4   0   0   0  0  0
  11  3  0   0   0   0  0  0
  12  0  5   0   0   0  0  0
  13  3  0   0   0   0  0  0
  14  0  6   0   0   0  0  0
  15  3  0   0   0   0  0  0
  16  0  7   0   0   0  0  0
  17  3  0   0   0   0  0  0
  18  0  8   0   0   0  0  0
  19  3  0   0   0   0  0  0
  20  0  9   0   0   0  0  0
  21  3  0   0   0   0  0  0
  22  0 10   0   0   0  0  0
  23  3  0   0   0   0  0  0
  24  0 11   0   0   0  0  0
  25  3  0   0   0   0  0  0
  26  0 12   0   0   0  0  0
  27  3  0   0   0   0  0  0
  28  0 13   0   0   0  0  0
  29  3  0   0   0   0  0  0
  30  0 14   0   0   0  0  0
  31  3  0   0   0   0  0  0
  32  0 15   0   0   0  0  0
  33  3  0   0   0   0  0  0
  34  0 16   0   0   0  0  0
  35  3  0   0   0   0  0  0
  36  0 17   0   0   0  0  0
  37  3  0   0   0   0  0  0
  38  0 18   0   0   0  0  0
  39  3  0   0   0   0  0  0
  40  0 19   0   0   0  0  0
  41  3  0   0   0   0  0  0
  42  0 20   0   0   0  0  0
  43  0  0   1   1   1  0  0
  44  0  0   0   0   0  1  0
  45  2  0   0   0   0  0  0
  46  0 21   0   0   0  0  0
  47  3  0   0   0   0  0  0
  48  0 22   0   0   0  0  0
  49  3  0   0   0   0  0  0
  50  0 23   0   0   0  0  0
  51  3  0   0   0   0  0  0
  52  0 24   0   0   0  0  0
  53  3  0   0   0   0  0  0
  54  0 25   0   0   0  0  0
  55  3  0   0   0   0  0  0
  56  0 26   0   0   0  0  0
  57  3  0   0   0   0  0  0
  58  0 27   0   0   0  0  0
  59  3  0   0   0   0  0  0
  60  0 28   0   0   0  0  0
  61  3  0   0   0   0  0  0
  62  0 29   0   0   0  0  0
  63  3  0   0   0   0  0  0
  64  0 30   0   0   0  0  0
  65  3  0   0   0   0  0  0
  66  0 31   0   0   0  0  0
  67  3  0   0   0   0  0  0
  68  0 32   0   0   0  0  0
  69  3  0   0   0   0  0  0
  70  0 33   0   0   0  0  0
  71  3  0   0   0   0  0  0
  72  0 34   0   0   0  0  0
  73  3  0   0   0   0  0  0
  74  0 35   0   0   0  0  0
  75  3  0   0   0   0  0  0
  76  0 36   0   0   0  0  0
  77  3  0   0   0   0  0  0
  78  0 37   0   0   0  0  0
  79  3  0   0   0   0  0  0
  80  0 38   0   0   0  0  0
  81  3  0   0   0   0  0  0
  82  0 39   0   0   0  0  0
  83  3  0   0   0   0  0  0
  84  0 40   0   0   0  0  0
  85  0  0   1   1   1  0  0
  86  0  0   0   0   0  1  0
  87  2  0   0   0   0  0  0
  88  0 41   0   0   0  0  0
  89  3  0   0   0   0  0  0
  90  0 42   0   0   0  0  0
  91  3  0   0   0   0  0  0
  92  0 43   0   0   0  0  0
  93  3  0   0   0   0  0  0
  94  0 44   0   0   0  0  0
  95  3  0   0   0   0  0  0
  96  0 45   0   0   0  0  0
  97  3  0   0   0   0  0  0
  98  0 46   0   0   0  0  0
  99  3  0   0   0   0  0  0
 100  0 47   0   0   0  0  0
 101  3  0   0   0   0  0  0
 102  0 48   0   0   0  0  0
 103  3  0   0   0   0  0  0
 104  0 49   0   0   0  0  0
 105  3  0   0   0   0  0  0
 106  0 50   0   0   0  0  0
 107  3  0   0   0   0  0  0
 108  0 51   0   0   0  0  0
 109  3  0   0   0   0  0  0
 110  0 52   0   0   0  0  0
 111  3  0   0   0   0  0  0
 112  0 53   0   0   0  0  0
 113  3  0   0   0   0  0  0
 114  0 54   0   0   0  0  0
 115  3  0   0   0   0  0  0
 116  0 55   0   0   0  0  0
 117  3  0   0   0   0  0  0
 118  0 56   0   0   0  0  0
 119  3  0   0   0   0  0  0
 120  0 57   0   0   0  0  0
 121  3  0   0   0   0  0  0
 122  0 58   0   0   0  0  0
 123  3  0   0   0   0  0  0
 124  0 59   0   0   0  0  0
 125  3  0   0   0   0  0  0
 126  0 60   0   0   0  0  0
 127  0  0   1   1   1  0  0
 128  0  0   0   0   0  1  0
 129  2  0   0   0   0  0  0
 130  0 61   0   0   0  0  0
 131  3  0   0   0   0  0  0
 132  0 62   0   0   0  0  0
 133  3  0   0   0   0  0  0
 134  0 63   0   0   0  0  0
 135  3  0   0   0   0  0  0
 136  0 64   0   0   0  0  0
 137  3  0   0   0   0  0  0
 138  0 65   0   0   0  0  0
 139  3  0   0   0   0  0  0
 140  0 66   0   0   0  0  0
 141  3  0   0   0   0  0  0
 142  0 67   0   0   0  0  0
 143  3  0   0   0   0  0  0
 144  0 68   0   0   0  0  0
 145  3  0   0   0   0  0  0
 146  0 69   0   0   0  0  0
 147  3  0   0   0   0  0  0
 148  0 70   0   0   0  0  0
 149  3  0   0   0   0  0  0
 150  0 71   0   0   0  0  0
 151  3  0   0   0   0  0  0
 152  0 72   0   0   0  0  0
 153  3  0   0   0   0  0  0
 154  0 73   0   0   0  0  0
 155  3  0   0   0   0  0  0
 156  0 74   0   0   0  0  0
 157  3  0   0   0   0  0  0
 158  0 75   0   0   0  0  0
 159  3  0   0   0   0  0  0
 160  0 76   0   0   0  0  0
 161  3  0   0   0   0  0  0
 162  0 77   0   0   0  0  0
 163  3  0   0   0   0  0  0
 164  0 78   0   0   0  0  0
 165  3  0   0   0   0  0  0
 166  0 79   0   0   0  0  0
 167  3  0   0   0   0  0  0
 168  0 80   0   0   0  0  0
 169  0  0   1   1   1  0  0
 170  0  0   0   0   0  1  0
 171  2  0   0   0   0  0  0
 172  0 81   0   0   0  0  0
 173  3  0   0   0   0  0  0
 174  0 82   0   0   0  0  0
 175  3  0   0   0   0  0  0
 176  0 83   0   0   0  0  0
 177  3  0   0   0   0  0  0
 178  0 84   0   0   0  0  0
 179  3  0   0   0   0  0  0
 180  0 85   0   0   0  0  0
 181  3  0   0   0   0  0  0
 182  0 86   0   0   0  0  0
 183  3  0   0   0   0  0  0
 184  0 87   0   0   0  0  0
 185  3  0   0   0   0  0  0
 186  0 88   0   0   0  0  0
 187  3  0   0   0   0  0  0
 188  0 89   0   0   0  0  0
 189  3  0   0   0   0  0  0
 190  0 90   0   0   0  0  0
 191  3  0   0   0   0  0  0
 192  0 91   0   0   0  0  0
 193  3  0   0   0   0  0  0
 194  0 92   0   0   0  0  0
 195  3  0   0   0   0  0  0
 196  0 93   0   0   0  0  0
 197  3  0   0   0   0  0  0
 198  0 94   0   0   0  0  0
 199  3  0   0   0   0  0  0
 200  0 95   0   0   0  0  0
 201  3  0   0   0   0  0  0
 202  0 96   0   0   0  0  0
 203  3  0   0   0   0  0  0
 204  0 97   0   0   0  0  0
 205  3  0   0   0   0  0  0
 206  0 98   0   0   0  0  0
 207  3  0   0   0   0  0  0
 208  0 99   0   0   0  0  0
 209  3  0   0   0   0  0  0
 210  0 100   0   0   0  0  0
 211  0  0   1   1   1  0  0
 212  0  0   0   0   0  1  0
 213  2  0   0   0   0  0  0
 214  0 101   0   0   0  0  0
 215  3  0   0   0   0  0  0
 216  0 102   0   0   0  0  0
 217  3  0   0   0   0  0  0
 218  0 103   0   0   0  0  0
 219  3  0   0   0   0  0  0
 220  0 104   0   0   0  0  0
 221  3  0   0   0   0  0  0
 222  0 105   0   0   0  0  0
 223  3  0   0   0   0  0  0
 224  0 106   0   0   0  0  0
 225  3  0   0   0   0  0  0
 226  0 107   0   0   0  0  0
 227  3  0   0   0   0  0  0
 228  0 108   0   0   0  0  0
 229  3  0   0   0   0  0  0
 230  0 109   0   0   0  0  0
 231  3  0   0   0   0  0  0
 232  0 110   0   0   0  0  0
 233  3  0   0   0   0  0  0
 234  0 111   0   0   0  0  0
 235  3  0   0   0   0  0  0
 236  0 112   0   0   0  0  0
 237  3  0   0   0   0  0  0
 238  0 113   0   0   0  0  0
 239  3  0   0   0   0  0  0
 240  0 114   0   0   0  0  0
 241  3  0   0   0   0  0  0
 242  0 115   0   0   0  0  0
 243  3  0   0   0   0  0  0
 244  0 116   0   0   0  0  0
 245  3  0   0   0   0  0  0
 246  0 117   0   0   0  0  0
 247  3  0   0   0   0  0  0
 248  0 118   0   0   0  0  0
 249  3  0   0   0   0  0  0
 250  0 119   0   0   0  0  0
 251  3  0   0   0   0  0  0
 252  0 120   0   0   0  0  0
 253  0  0   1   1   1  0  0
 254  0  0   0   0   0  1  0
 255  2  0   0   0   0  0  0
 256  0 121   0   0   0  0  0
 257  3  0   0   0   0  0  0
 258  0 122   0   0   0  0  0
 259  3  0   0   0   0  0  0
 260  0 123   0   0   0  0  0
 261  3  0   0   0   0  0  0
 262  0 124   0   0   0  0  0
 263  3  0   0   0   0  0  0
 264  0 125   0   0   0  0  0
 265  3  0   0   0   0  0  0
 266  0 126   0   0   0  0  0
 267  3  0   0   0   0  0  0
 268  0 127   0   0   0  0  0
 269  3  0   0   0   0  0  0
 270  0 128   0   0   0  0  0
 271  3  0   0   0   0  0  0
 272  0 129   0   0   0  0  0
 273  3  0   0   0   0  0  0
 274  0 130   0   0   0  0  0
 275  3  0   0   0   0  0  0
 276  0 131   0   0   0  0  0
 277  3  0   0   0   0  0  0
 278  0 132   0   0   0  0  0
 279  3  0   0   0   0  0  0
 280  0 133   0   0   0  0  0
 281  3  0   0   0   0  0  0
 282  0 134   0   0   0  0  0
 283  3  0   0   0   0  0  0
 284  0 135   0   0   0  0  0
 285  3  0   0   0   0  0  0
 286  0 136   0   0   0  0  0
 287  3  0   0   0   0  0  0
 288  0 137   0   0   0  0  0
 289  3  0   0   0   0  0  0
 290  0 138   0   0   0  0  0
 291  3  0   0   0   0  0  0
 292  0 139   0   0   0  0  0
 293  3  0   0   0   0  0  0
 294  0 140   0   0   0  0  0
 295  0  0   1   1   1  0  0
 296  0  0   0   0   0  1  0
 297  2  0   0   0   0  0  0
 298  0 141   0   0   0  0  0
 299  3  0   0   0   0  0  0
 300  0 142   0   0   0  0  0
 301  3  0   0   0   0  0  0
 302  0 143   0   0   0  0  0
 303  3  0   0   0   0  0  0
 304  0 144   0   0   0  0  0
 305  3  0   0   0   0  0  0
 306  0 145   0   0   0  0  0
 307  3  0   0   0   0  0  0
 308  0 146   0   0   0  0  0
 309  3  0   0   0   0  0  0
 310  0 147   0   0   0  0  0
 311  3  0   0   0   0  0  0
 312  0 148   0   0   0  0  0
 313  3  0   0   0   0  0  0
 314  0 149   0   0   0  0  0
 315  3  0   0   0   0  0  0
 316  0 150   0   0   0  0  0
 317  3  0   0   0   0  0  0
 318  0 151   0   0   0  0  0
 319  3  0   0   0   0  0  0
 320  0 152   0   0   0  0  0
 321  3  0   0   0   0  0  0
 322  0 153   0   0   0  0  0
 323  3  0   0   0   0  0  0
 324  0 154   0   0   0  0  0
[RF]
1      283.607 1 2 100 -1277.29 0
2      283.607 1 2 100 -1277.29 0.850743
3      283.607 1 2 100 -1277.29 1.70149
4      283.607 1 2 100 -1277.29 2.55223
5      283.607 1 2 100 -1277.29 3.40297
6      283.607 1 2 100 -1277.29 4.25372
7      283.607 1 2 100 -1277.29 5.10446
8      283.607 1 2 100 -1277.29 5.9552
9      283.607 1 2 100 -1277.29 0.522761
10      283.607 1 2 100 -1277.29 1.3735
11      283.607 1 2 100 -1277.29 2.22425
12      283.607 1 2 100 -1277.29 3.07499
13      283.607 1 2 100 -1277.29 3.92573
14      283.607 1 2 100 -1277.29 4.77648
15      283.607 1 2 100 -1277.29 5.62722
16      283.607 1 2 100 -1277.29 0.194779
17      283.607 1 2 100 -1277.29 1.04552
18      283.607 1 2 100 -1277.29 1.89627
19      283.607 1 2 100 -1277.29 2.74701
20      283.607 1 2 100 -1277.29 3.59775
21      283.607 1 2 100 -1211.79 4.4485
22      283.607 1 2 100 -1211.79 0.744606
23      283.607 1 2 100 -1211.79 3.3239
24      283.607 1 2 100 -1211.79 5.9032
25      283.607 1 2 100 -1211.79 2.19931
26      283.607 1 2 100 -1211.79 4.7786
27      283.607 1 2 100 -1211.79 1.07471
28      283.607 1 2 100 -1211.79 3.65401
29      283.607 1 2 100 -1211.79 6.23331
30      283.607 1 2 100 -1211.79 2.52942
31      283.607 1 2 100 -1211.79 5.10871
32      283.607 1 2 100 -1211.79 1.40482
33      283.607 1 2 100 -1211.79 3.98412
34      283.607 1 2 100 -1211.79 0.28023
35      283.607 1 2 100 -1211.79 2.85953
36      283.607 1 2 100 -1211.79 5.43882
37      283.607 1 2 100 -1211.79 1.73493
38      283.607 1 2 100 -1211.79 4.31423
39      283.607 1 2 100 -1211.79 0.610339
40      283.607 1 2 100 -1211.79 3.18963
41      283.607 1 2 100 -1146.29 5.76893
42      283.607 1 2 100 -1146.29 3.79359
43      283.607 1 2 100 -1146.29 1.81826
44      283.607 1 2 100 -1146.29 6.12611
45      283.607 1 2 100 -1146.29 4.15077
46      283.607 1 2 100 -1146.29 2.17543
47      283.607 1 2 100 -1146.29 0.200095
48      283.607 1 2 100 -1146.29 4.50794
49      283.607 1 2 100 -1146.29 2.53261
50      283.607 1 2 100 -1146.29 0.55727
51      283.607 1 2 100 -1146.29 4.86512
52      283.607 1 2 100 -1146.29 2.88978
53      283.607 1 2 100 -1146.29 0.914445
54      283.607 1 2 100 -1146.29 5.22229
55      283.607 1 2 100 -1146.29 3.24696
56      283.607 1 2 100 -1146.29 1.27162
57      283.607 1 2 100 -1146.29 5.57947
58      283.607 1 2 100 -1146.29 3.60413
59      283.607 1 2 100 -1146.29 1.62879
60      283.607 1 2 100 -1146.29 5.93664
61      283.607 1 2 100 -1080.79 3.96131
62      283.607 1 2 100 -1080.79 3.71452
63      283.607 1 2 100 -1080.79 3.46774
64      283.607 1 2 100 -1080.79 3.22095
65      283.607 1 2 100 -1080.79 2.97417
66      283.607 1 2 100 -1080.79 2.72739
67      283.607 1 2 100 -1080.79 2.4806
68      283.607 1 2 100 -1080.79 2.23382
69      283.607 1 2 100 -1080.79 1.98703
70      283.607 1 2 100 -1080.79 1.74025
71      283.607 1 2 100 -1080.79 1.49346
72      283.607 1 2 100 -1080.79 1.24668
73      283.607 1 2 100 -1080.79 0.999896
74      283.607 1 2 100 -1080.79 0.753112
75      283.607 1 2 100 -1080.79 0.506328
76      283.607 1 2 100 -1080.79 0.259544
77      283.607 1 2 100 -1080.79 0.0127597
78      283.607 1 2 100 -1080.79 6.04916
79      283.607 1 2 100 -1080.79 5.80238
80      283.607 1 2 100 -1080.79 5.55559
81      283.607 1 2 100 -1015.28 5.30881
82      283.607 1 2 100 -1015.28 0.507391
83      283.607 1 2 100 -1015.28 1.98916
84      283.607 1 2 100 -1015.28 3.47093
85      283.607 1 2 100 -1015.28 4.9527
86      283.607 1 2 100 -1015.28 0.15128
87      283.607 1 2 100 -1015.28 1.63305
88      283.607 1 2 100 -1015.28 3.11482
89      283.607 1 2 100 -1015.28 4.59659
90      283.607 1 2 100 -1015.28 6.07835
91      283.607 1 2 100 -1015.28 1.27694
92      283.607 1 2 100 -1015.28 2.75871
93      283.607 1 2 100 -1015.28 4.24047
94      283.607 1 2 100 -1015.28 5.72224
95      283.607 1 2 100 -1015.28 0.920825
96      283.607 1 2 100 -1015.28 2.40259
97      283.607 1 2 100 -1015.28 3.88436
98      283.607 1 2 100 -1015.28 5.36613
99      283.607 1 2 100 -1015.28 0.564713
100      283.607 1 2 100 -1015.28 2.04648
101      283.607 1 2 100 -949.781 3.52825
102      283.607 1 2 100 -949.781 0.455386
103      283.607 1 2 100 -949.781 3.66571
104      283.607 1 2 100 -949.781 0.592843
105      283.607 1 2 100 -949.781 3.80316
106      283.607 1 2 100 -949.781 0.730299
107      283.607 1 2 100 -949.781 3.94062
108      283.607 1 2 100 -949.781 0.867756
109      283.607 1 2 100 -949.781 4.07808
110      283.607 1 2 100 -949.781 1.00521
111      283.607 1 2 100 -949.781 4.21553
112      283.607 1 2 100 -949.781 1.14267
113      283.607 1 2 100 -949.781 4.35299
114      283.607 1 2 100 -949.781 1.28013
115      283.607 1 2 100 -949.781 4.49045
116      283.607 1 2 100 -949.781 1.41758
117      283.607 1 2 100 -949.781 4.6279
118      283.607 1 2 100 -949.781 1.55504
119      283.607 1 2 100 -949.781 4.76536
120      283.607 1 2 100 -949.781 1.6925
121      283.607 1 2 100 -884.279 4.90282
122      283.607 1 2 100 -884.279 3.55851
123      283.607 1 2 100 -884.279 2.21419
124      283.607 1 2 100 -884.279 0.869883
125      283.607 1 2 100 -884.279 5.80876
126      283.607 1 2 100 -884.279 4.46444
127      283.607 1 2 100 -884.279 3.12013
128      283.607 1 2 100 -884.279 1.77582
129      283.607 1 2 100 -884.279 0.43151
130      283.607 1 2 100 -884.279 5.37038
131      283.607 1 2 100 -884.279 4.02607
132      283.607 1 2 100 -884.279 2.68176
133      283.607 1 2 100 -884.279 1.33745
134      283.607 1 2 100 -884.279 6.27632
135      283.607 1 2 100 -884.279 4.93201
136      283.607 1 2 100 -884.279 3.5877
137      283.607 1 2 100 -884.279 2.24339
138      283.607 1 2 100 -884.279 0.899075
139      283.607 1 2 100 -884.279 5.83795
140      283.607 1 2 100 -884.279 4.49364
141      283.607 1 2 100 -818.777 3.14933
142      283.607 1 2 100 -818.777 3.53357
143      283.607 1 2 100 -818.777 3.91781
144      283.607 1 2 100 -818.777 4.30205
145      283.607 1 2 100 -818.777 4.68629
146      283.607 1 2 100 -818.777 5.07053
147      283.607 1 2 100 -818.777 5.45477
148      283.607 1 2 100 -818.777 5.83901
149      283.607 1 2 100 -818.777 6.22325
150      283.607 1 2 100 -818.777 0.324309
151      283.607 1 2 100 -818.777 0.70855
152      283.607 1 2 100 -818.777 1.09279
153      283.607 1 2 100 -818.777 1.47703
154      283.607 1 2 100 -818.777 1.86127
155      283.607 1 2 100 -818.777 2.24551
156      283.607 1 2 100 -818.777 2.62975
157      283.607 1 2 100 -818.777 3.014
158      283.607 1 2 100 -818.777 3.39824
159      283.607 1 2 100 -818.777 3.78248
160      283.607 1 2 100 -818.777 4.16672
161      283.607 1 2 100 -753.275 4.55096
162      283.607 1 2 100 -753.275 0.380568
163      283.607 1 2 100 -753.275 2.49336
164      283.607 1 2 100 -753.275 4.60615
165      283.607 1 2 100 -753.275 0.435763
166      283.607 1 2 100 -753.275 2.54856
167      283.607 1 2 100 -753.275 4.66135
168      283.607 1 2 100 -753.275 0.490958
169      283.607 1 2 100 -753.275 2.60375
170      283.607 1 2 100 -753.275 4.71655
171      283.607 1 2 100 -753.275 0.546154
172      283.607 1 2 100 -753.275 2.65895
173      283.607 1 2 100 -753.275 4.77174
174      283.607 1 2 100 -753.275 0.601349
175      283.607 1 2 100 -753.275 2.71414
176      283.607 1 2 100 -753.275 4.82694
177      283.607 1 2 100 -753.275 0.656545
178      283.607 1 2 100 -753.275 2.76934
179      283.607 1 2 100 -753.275 4.88213
180      283.607 1 2 100 -753.275 0.71174
181      283.607 1 2 100 -687.773 2.82453
182      283.607 1 2 100 -687.773 0.382694
183      283.607 1 2 100 -687.773 4.22404
184      283.607 1 2 100 -687.773 1.7822
185      283.607 1 2 100 -687.773 5.62355
186      283.607 1 2 100 -687.773 3.18171
187      283.607 1 2 100 -687.773 0.739869
188      283.607 1 2 100 -687.773 4.58122
189      283.607 1 2 100 -687.773 2.13938
190      283.607 1 2 100 -687.773 5.98072
191      283.607 1 2 100 -687.773 3.53888
192      283.607 1 2 100 -687.773 1.09704
193      283.607 1 2 100 -687.773 4.93839
194      283.607 1 2 100 -687.773 2.49655
195      283.607 1 2 100 -687.773 0.054712
196      283.607 1 2 100 -687.773 3.89606
197      283.607 1 2 100 -687.773 1.45422
198      283.607 1 2 100 -687.773 5.29557
199      283.607 1 2 100 -687.773 2.85373
200      283.607 1 2 100 -687.773 0.411887
201      283.607 1 2 100 -622.27 4.25323
202      283.607 1 2 100 -622.27 3.53995
203      283.607 1 2 100 -622.27 2.82666
204      283.607 1 2 100 -622.27 2.11337
205      283.607 1 2 100 -622.27 1.40009
206      283.607 1 2 100 -622.27 0.6868
207      283.607 1 2 100 -622.27 6.2567
208      283.607 1 2 100 -622.27 5.54341
209      283.607 1 2 100 -622.27 4.83013
210      283.607 1 2 100 -622.27 4.11684
211      283.607 1 2 100 -622.27 3.40355
212      283.607 1 2 100 -622.27 2.69027
213      283.607 1 2 100 -622.27 1.97698
214      283.607 1 2 100 -622.27 1.26369
215      283.607 1 2 100 -622.27 0.550407
216      283.607 1 2 100 -622.27 6.12031
217      283.607 1 2 100 -622.27 5.40702
218      283.607 1 2 100 -622.27 4.69373
219      283.607 1 2 100 -622.27 3.98045
220      283.607 1 2 100 -622.27 3.26716
221      283.607 1 2 100 -556.768 2.55387
222      283.607 1 2 100 -556.768 3.56914
223      283.607 1 2 100 -556.768 4.58441
224      283.607 1 2 100 -556.768 5.59967
225      283.607 1 2 100 -556.768 0.331752
226      283.607 1 2 100 -556.768 1.34702
227      283.607 1 2 100 -556.768 2.36228
228      283.607 1 2 100 -556.768 3.37755
229      283.607 1 2 100 -556.768 4.39282
230      283.607 1 2 100 -556.768 5.40808
231      283.607 1 2 100 -556.768 0.140163
232      283.607 1 2 100 -556.768 1.15543
233      283.607 1 2 100 -556.768 2.1707
234      283.607 1 2 100 -556.768 3.18596
235      283.607 1 2 100 -556.768 4.20123
236      283.607 1 2 100 -556.768 5.21649
237      283.607 1 2 100 -556.768 6.23176
238      283.607 1 2 100 -556.768 0.963841
239      283.607 1 2 100 -556.768 1.97911
240      283.607 1 2 100 -556.768 2.99437
241      283.607 1 2 100 -491.266 4.00964
242      283.607 1 2 100 -491.266 0.470272
243      283.607 1 2 100 -491.266 3.21409
244      283.607 1 2 100 -491.266 5.95791
245      283.607 1 2 100 -491.266 2.41854
246      283.607 1 2 100 -491.266 5.16236
247      283.607 1 2 100 -491.266 1.623
248      283.607 1 2 100 -491.266 4.36681
249      283.607 1 2 100 -491.266 0.827447
250      283.607 1 2 100 -491.266 3.57127
251      283.607 1 2 100 -491.266 0.0318992
252      283.607 1 2 100 -491.266 2.77572
253      283.607 1 2 100 -491.266 5.51954
254      283.607 1 2 100 -491.266 1.98017
255      283.607 1 2 100 -491.266 4.72399
256      283.607 1 2 100 -491.266 1.18462
257      283.607 1 2 100 -491.266 3.92844
258      283.607 1 2 100 -491.266 0.389074
259      283.607 1 2 100 -491.266 3.13289
260      283.607 1 2 100 -491.266 5.87671
261      283.607 1 2 100 -425.764 2.33734
262      283.607 1 2 100 -425.764 0.526531
263      283.607 1 2 100 -425.764 4.9989
264      283.607 1 2 100 -425.764 3.18809
265      283.607 1 2 100 -425.764 1.37727
266      283.607 1 2 100 -425.764 5.84965
267      283.607 1 2 100 -425.764 4.03883
268      283.607 1 2 100 -425.764 2.22802
269      283.607 1 2 100 -425.764 0.417204
270      283.607 1 2 100 -425.764 4.88957
271      283.607 1 2 100 -425.764 3.07876
272      283.607 1 2 100 -425.764 1.26795
273      283.607 1 2 100 -425.764 5.74032
274      283.607 1 2 100 -425.764 3.9295
275      283.607 1 2 100 -425.764 2.11869
276      283.607 1 2 100 -425.764 0.307876
277      283.607 1 2 100 -425.764 4.78025
278      283.607 1 2 100 -425.764 2.96943
279      283.607 1 2 100 -425.764 1.15862
280      283.607 1 2 100 -425.764 5.63099
281      283.607 1 2 100 -360.262 3.82018
282      283.607 1 2 100 -360.262 3.73792
283      283.607 1 2 100 -360.262 3.65565
284      283.607 1 2 100 -360.262 3.57339
285      283.607 1 2 100 -360.262 3.49113
286      283.607 1 2 100 -360.262 3.40887
287      283.607 1 2 100 -360.262 3.32661
288      283.607 1 2 100 -360.262 3.24435
289      283.607 1 2 100 -360.262 3.16209
290      283.607 1 2 100 -360.262 3.07982
291      283.607 1 2 100 -360.262 2.99756
292      283.607 1 2 100 -360.262 2.9153
293      283.607 1 2 100 -360.262 2.83304
294      283.607 1 2 100 -360.262 2.75078
295      283.607 1 2 100 -360.262 2.66852
296      283.607 1 2 100 -360.262 2.58626
297      283.607 1 2 100 -360.262 2.50399
298      283.607 1 2 100 -360.262 2.42173
299      283.607 1 2 100 -360.262 2.33947
300      283.607 1 2 100 -360.262 2.25721
301      283.607 1 2 100 -294.76 2.17495
302      283.607 1 2 100 -294.76 3.82124
303      283.607 1 2 100 -294.76 5.46753
304      283.607 1 2 100 -294.76 0.830637
305      283.607 1 2 100 -294.76 2.47693
306      283.607 1 2 100 -294.76 4.12322
307      283.607 1 2 100 -294.76 5.76951
308      283.607 1 2 100 -294.76 1.13262
309      283.607 1 2 100 -294.76 2.77891
310      283.607 1 2 100 -294.76 4.4252
311      283.607 1 2 100 -294.76 6.07149
312      283.607 1 2 100 -294.76 1.4346
313      283.607 1 2 100 -294.76 3.08089
314      283.607 1 2 100 -294.76 4.72718
315      283.607 1 2 100 -294.76 0.0902845
316      283.607 1 2 100 -294.76 1.73658
317      283.607 1 2 100 -294.76 3.38287
318      283.607 1 2 100 -294.76 5.02916
319      283.607 1 2 100 -294.76 0.392264
320      283.607 1 2 100 -294.76 2.03856
321      283.607 1 2 100 -229.258 3.68485
322      283.607 1 2 100 -229.258 0.776505
323      283.607 1 2 100 -229.258 4.15135
324      283.607 1 2 100 -229.258 1.24301
325      283.607 1 2 100 -229.258 4.61785
326      283.607 1 2 100 -229.258 1.70951
327      283.607 1 2 100 -229.258 5.08435
328      283.607 1 2 100 -229.258 2.17601
329      283.607 1 2 100 -229.258 5.55086
330      283.607 1 2 100 -229.258 2.64251
331      283.607 1 2 100 -229.258 6.01736
332      283.607 1 2 100 -229.258 3.10902
333      283.607 1 2 100 -229.258 0.200675
334      283.607 1 2 100 -229.258 3.57552
335      283.607 1 2 100 -229.258 0.667178
336      283.607 1 2 100 -229.258 4.04202
337      283.607 1 2 100 -229.258 1.13368
338      283.607 1 2 100 -229.258 4.50852
339      283.607 1 2 100 -229.258 1.60018
340      283.607 1 2 100 -229.258 4.97503
341      283.607 1 2 100 -163.755 2.06668
342      283.607 1 2 100 -163.755 0.886896
343      283.607 1 2 100 -163.755 5.99029
344      283.607 1 2 100 -163.755 4.8105
345      283.607 1 2 100 -163.755 3.63071
346      283.607 1 2 100 -163.755 2.45093
347      283.607 1 2 100 -163.755 1.27114
348      283.607 1 2 100 -163.755 0.0913478
349      283.607 1 2 100 -163.755 5.19474
350      283.607 1 2 100 -163.755 4.01496
351      283.607 1 2 100 -163.755 2.83517
352      283.607 1 2 100 -163.755 1.65538
353      283.607 1 2 100 -163.755 0.475589
354      283.607 1 2 100 -163.755 5.57899
355      283.607 1 2 100 -163.755 4.3992
356      283.607 1 2 100 -163.755 3.21941
357      283.607 1 2 100 -163.755 2.03962
358      283.607 1 2 100 -163.755 0.85983
359      283.607 1 2 100 -163.755 5.96323
360      283.607 1 2 100 -163.755 4.78344
361      283.607 1 2 100 -98.2532 3.60365
362      283.607 1 2 100 -98.2532 4.15241
363      283.607 1 2 100 -98.2532 4.70118
364      283.607 1 2 100 -98.2532 5.24994
365      283.607 1 2 100 -98.2532 5.7987
366      283.607 1 2 100 -98.2532 0.0642818
367      283.607 1 2 100 -98.2532 0.613046
368      283.607 1 2 100 -98.2532 1.16181
369      283.607 1 2 100 -98.2532 1.71057
370      283.607 1 2 100 -98.2532 2.25934
371      283.607 1 2 100 -98.2532 2.8081
372      283.607 1 2 100 -98.2532 3.35686
373      283.607 1 2 100 -98.2532 3.90563
374      283.607 1 2 100 -98.2532 4.45439
375      283.607 1 2 100 -98.2532 5.00316
376      283.607 1 2 100 -98.2532 5.55192
377      283.607 1 2 100 -98.2532 6.10068
378      283.607 1 2 100 -98.2532 0.366261
379      283.607 1 2 100 -98.2532 0.915025
380      283.607 1 2 100 -98.2532 1.46379
381      283.607 1 2 100 -32.7511 2.01255
382      283.607 1 2 100 -32.7511 4.28987
383      283.607 1 2 100 -32.7511 0.284
384      283.607 1 2 100 -32.7511 2.56132
385      283.607 1 2 100 -32.7511 4.83863
386      283.607 1 2 100 -32.7511 0.832764
387      283.607 1 2 100 -32.7511 3.11008
388      283.607 1 2 100 -32.7511 5.3874
389      283.607 1 2 100 -32.7511 1.38153
390      283.607 1 2 100 -32.7511 3.65884
391      283.607 1 2 100 -32.7511 5.93616
392      283.607 1 2 100 -32.7511 1.93029
393      283.607 1 2 100 -32.7511 4.20761
394      283.607 1 2 100 -32.7511 0.201739
395      283.607 1 2 100 -32.7511 2.47905
396      283.607 1 2 100 -32.7511 4.75637
397      283.607 1 2 100 -32.7511 0.750502
398      283.607 1 2 100 -32.7511 3.02782
399      283.607 1 2 100 -32.7511 5.30514
400      283.607 1 2 100 -32.7511 1.29927
401      283.607 1 2 100 32.7511 3.57658
402      283.607 1 2 100 32.7511 1.29927
403      283.607 1 2 100 32.7511 5.30514
404      283.607 1 2 100 32.7511 3.02782
405      283.607 1 2 100 32.7511 0.750502
406      283.607 1 2 100 32.7511 4.75637
407      283.607 1 2 100 32.7511 2.47905
408      283.607 1 2 100 32.7511 0.201739
409      283.607 1 2 100 32.7511 4.20761
410      283.607 1 2 100 32.7511 1.93029
411      283.607 1 2 100 32.7511 5.93616
412      283.607 1 2 100 32.7511 3.65884
413      283.607 1 2 100 32.7511 1.38153
414      283.607 1 2 100 32.7511 5.3874
415      283.607 1 2 100 32.7511 3.11008
416      283.607 1 2 100 32.7511 0.832764
417      283.607 1 2 100 32.7511 4.83863
418      283.607 1 2 100 32.7511 2.56132
419      283.607 1 2 100 32.7511 0.284
420      283.607 1 2 100 32.7511 4.28987
421      283.607 1 2 100 98.2532 2.01255
422      283.607 1 2 100 98.2532 1.46379
423      283.607 1 2 100 98.2532 0.915025
424      283.607 1 2 100 98.2532 0.366261
425      283.607 1 2 100 98.2532 6.10068
426      283.607 1 2 100 98.2532 5.55192
427      283.607 1 2 100 98.2532 5.00316
428      283.607 1 2 100 98.2532 4.45439
429      283.607 1 2 100 98.2532 3.90563
430      283.607 1 2 100 98.2532 3.35686
431      283.607 1 2 100 98.2532 2.8081
432      283.607 1 2 100 98.2532 2.25934
433      283.607 1 2 100 98.2532 1.71057
434      283.607 1 2 100 98.2532 1.16181
435      283.607 1 2 100 98.2532 0.613046
436      283.607 1 2 100 98.2532 0.0642818
437      283.607 1 2 100 98.2532 5.7987
438      283.607 1 2 100 98.2532 5.24994
439      283.607 1 2 100 98.2532 4.70118
440      283.607 1 2 100 98.2532 4.15241
441      283.607 1 2 100 163.755 3.60365
442      283.607 1 2 100 163.755 4.78344
443      283.607 1 2 100 163.755 5.96323
444      283.607 1 2 100 163.755 0.85983
445      283.607 1 2 100 163.755 2.03962
446      283.607 1 2 100 163.755 3.21941
447      283.607 1 2 100 163.755 4.3992
448      283.607 1 2 100 163.755 5.57899
449      283.607 1 2 100 163.755 0.475589
450      283.607 1 2 100 163.755 1.65538
451      283.607 1 2 100 163.755 2.83517
452      283.607 1 2 100 163.755 4.01496
453      283.607 1 2 100 163.755 5.19474
454      283.607 1 2 100 163.755 0.0913478
455      283.607 1 2 100 163.755 1.27114
456      283.607 1 2 100 163.755 2.45093
457      283.607 1 2 100 163.755 3.63071
458      283.607 1 2 100 163.755 4.8105
459      283.607 1 2 100 163.755 5.99029
460      283.607 1 2 100 163.755 0.886896
461      283.607 1 2 100 229.258 2.06668
462      283.607 1 2 100 229.258 4.97503
463      283.607 1 2 100 229.258 1.60018
464      283.607 1 2 100 229.258 4.50852
465      283.607 1 2 100 229.258 1.13368
466      283.607 1 2 100 229.258 4.04202
467      283.607 1 2 100 229.258 0.667178
468      283.607 1 2 100 229.258 3.57552
469      283.607 1 2 100 229.258 0.200675
470      283.607 1 2 100 229.258 3.10902
471      283.607 1 2 100 229.258 6.01736
472      283.607 1 2 100 229.258 2.64251
473      283.607 1 2 100 229.258 5.55086
474      283.607 1 2 100 229.258 2.17601
475      283.607 1 2 100 229.258 5.08435
476      283.607 1 2 100 229.258 1.70951
477      283.607 1 2 100 229.258 4.61785
478      283.607 1 2 100 229.258 1.24301
479      283.607 1 2 100 229.258 4.15135
480      283.607 1 2 100 229.258 0.776505
