# Pulseq sequence file
# Created by MATLAB mr toolbox

[VERSION]
major 1
minor 3
revision 0

[DEFINITIONS]
offsets_ppm -10 -9.48718 -8.97436 -8.46154 -7.94872 -7.4359 -6.92308 -6.41026 -5.89744 -5.38462 -4.87179 -4.35897 -3.84615 -3.33333 -2.82051 -2.30769 -1.79487 -1.28205 -0.769231 -0.25641 0.25641 0.769231 1.28205 1.79487 2.30769 2.82051 3.33333 3.84615 4.35897 4.87179 5.38462 5.89744 6.41026 6.92308 7.4359 7.94872 8.46154 8.97436 9.48718 10 
run_m0_scan 1 

# Format of blocks:
#  #  D RF  GX  GY  GZ ADC EXT
[BLOCKS]
   1  1  0   0   0   0  0  0
   2  0  0   0   0   0  1  0
   3  2  0   0   0   0  0  0
   4  0  1   0   0   0  0  0
   5  3  0   0   0   0  0  0
   6  0  1   0   0   0  0  0
   7  3  0   0   0   0  0  0
   8  0  1   0   0   0  0  0
   9  3  0   0   0   0  0  0
  10  0  1   0   0   0  0  0
  11  3  0   0   0   0  0  0
  12  0  1   0   0   0  0  0
  13  3  0   0   0   0  0  0
  14  0  1   0   0   0  0  0
  15  3  0   0   0   0  0  0
  16  0  1   0   0   0  0  0
  17  3  0   0   0   0  0  0
  18  0  1   0   0   0  0  0
  19  3  0   0   0   0  0  0
  20  0  1   0   0   0  0  0
  21  3  0   0   0   0  0  0
  22  0  1   0   0   0  0  0
  23  3  0   0   0   0  0  0
  24  0  1   0   0   0  0  0
  25  3  0   0   0   0  0  0
  26  0  1   0   0   0  0  0
  27  3  0   0   0   0  0  0
  28  0  1   0   0   0  0  0
  29  3  0   0   0   0  0  0
  30  0  1   0   0   0  0  0
  31  3  0   0   0   0  0  0
  32  0  1   0   0   0  0  0
  33  3  0   0   0   0  0  0
  34  0  1   0   0   0  0  0
  35  3  0   0   0   0  0  0
  36  0  1   0   0   0  0  0
  37  3  0   0   0   0  0  0
  38  0  1   0   0   0  0  0
  39  3  0   0   0   0  0  0
  40  0  1   0   0   0  0  0
  41  3  0   0   0   0  0  0
  42  0  1   0   0   0  0  0
  43  0  0   1   1   1  0  0
  44  0  0   0   0   0  1  0
  45  2  0   0   0   0  0  0
  46  0  2   0   0   0  0  0
  47  3  0   0   0   0  0  0
  48  0  2   0   0   0  0  0
  49  3  0   0   0   0  0  0
  50  0  2   0   0   0  0  0
  51  3  0   0   0   0  0  0
  52  0  2   0   0   0  0  0
  53  3  0   0   0   0  0  0
  54  0  2   0   0   0  0  0
  55  3  0   0   0   0  0  0
  56  0  2   0   0   0  0  0
  57  3  0   0   0   0  0  0
  58  0  2   0   0   0  0  0
  59  3  0   0   0   0  0  0
  60  0  2   0   0   0  0  0
  61  3  0   0   0   0  0  0
  62  0  2   0   0   0  0  0
  63  3  0   0   0   0  0  0
  64  0  2   0   0   0  0  0
  65  3  0   0   0   0  0  0
  66  0  2   0   0   0  0  0
  67  3  0   0   0   0  0  0
  68  0  2   0   0   0  0  0
  69  3  0   0   0   0  0  0
  70  0  2   0   0   0  0  0
  71  3  0   0   0   0  0  0
  72  0  2   0   0   0  0  0
  73  3  0   0   0   0  0  0
  74  0  2   0   0   0  0  0
  75  3  0   0   0   0  0  0
  76  0  2   0   0   0  0  0
  77  3  0   0   0   0  0  0
  78  0  2   0   0   0  0  0
  79  3  0   0   0   0  0  0
  80  0  2   0   0   0  0  0
  81  3  0   0   0   0  0  0
  82  0  2   0   0   0  0  0
  83  3  0   0   0   0  0  0
  84  0  2   0   0   0  0  0
  85  0  0   1   1   1  0  0
  86  0  0   0   0   0  1  0
  87  2  0   0   0   0  0  0
  88  0  3   0   0   0  0  0
  89  3  0   0   0   0  0  0
  90  0  3   0   0   0  0  0
  91  3  0   0   0   0  0  0
  92  0  3   0   0   0  0  0
  93  3  0   0   0   0  0  0
  94  0  3   0   0   0  0  0
  95  3  0   0   0   0  0  0
  96  0  3   0   0   0  0  0
  97  3  0   0   0   0  0  0
  98  0  3   0   0   0  0  0
  99  3  0   0   0   0  0  0
 100  0  3   0   0   0  0  0
 101  3  0   0   0   0  0  0
 102  0  3   0   0   0  0  0
 103  3  0   0   0   0  0  0
 104  0  3   0   0   0  0  0
 105  3  0   0   0   0  0  0
 106  0  3   0   0   0  0  0
 107  3  0   0   0   0  0  0
 108  0  3   0   0   0  0  0
 109  3  0   0   0   0  0  0
 110  0  3   0   0   0  0  0
 111  3  0   0   0   0  0  0
 112  0  3   0   0   0  0  0
 113  3  0   0   0   0  0  0
 114  0  3   0   0   0  0  0
 115  3  0   0   0   0  0  0
 116  0  3   0   0   0  0  0
 117  3  0   0   0   0  0  0
 118  0  3   0   0   0  0  0
 119  3  0   0   0   0  0  0
 120  0  3   0   0   0  0  0
 121  3  0   0   0   0  0  0
 122  0  3   0   0   0  0  0
 123  3  0   0   0   0  0  0
 124  0  3   0   0   0  0  0
 125  3  0   0   0   0  0  0
 126  0  3   0   0   0  0  0
 127  0  0   1   1   1  0  0
 128  0  0   0   0   0  1  0
 129  2  0   0   0   0  0  0
 130  0  4   0   0   0  0  0
 131  3  0   0   0   0  0  0
 132  0  4   0   0   0  0  0
 133  3  0   0   0   0  0  0
 134  0  4   0   0   0  0  0
 135  3  0   0   0   0  0  0
 136  0  4   0   0   0  0  0
 137  3  0   0   0   0  0  0
 138  0  4   0   0   0  0  0
 139  3  0   0   0   0  0  0
 140  0  4   0   0   0  0  0
 141  3  0   0   0   0  0  0
 142  0  4   0   0   0  0  0
 143  3  0   0   0   0  0  0
 144  0  4   0   0   0  0  0
 145  3  0   0   0   0  0  0
 146  0  4   0   0   0  0  0
 147  3  0   0   0   0  0  0
 148  0  4   0   0   0  0  0
 149  3  0   0   0   0  0  0
 150  0  4   0   0   0  0  0
 151  3  0   0   0   0  0  0
 152  0  4   0   0   0  0  0
 153  3  0   0   0   0  0  0
 154  0  4   0   0   0  0  0
 155  3  0   0   0   0  0  0
 156  0  4   0   0   0  0  0
 157  3  0   0   0   0  0  0
 158  0  4   0   0   0  0  0
 159  3  0   0   0   0  0  0
 160  0  4   0   0   0  0  0
 161  3  0   0   0   0  0  0
 162  0  4   0   0   0  0  0
 163  3  0   0   0   0  0  0
 164  0  4   0   0   0  0  0
 165  3  0   0   0   0  0  0
 166  0  4   0   0   0  0  0
 167  3  0   0   0   0  0  0
 168  0  4   0   0   0  0  0
 169  0  0   1   1   1  0  0
 170  0  0   0   0   0  1  0
 171  2  0   0   0   0  0  0
 172  0  5   0   0   0  0  0
 173  3  0   0   0   0  0  0
 174  0  5   0   0   0  0  0
 175  3  0   0   0   0  0  0
 176  0  5   0   0   0  0  0
 177  3  0   0   0   0  0  0
 178  0  5   0   0   0  0  0
 179  3  0   0   0   0  0  0
 180  0  5   0   0   0  0  0
 181  3  0   0   0   0  0  0
 182  0  5   0   0   0  0  0
 183  3  0   0   0   0  0  0
 184  0  5   0   0   0  0  0
 185  3  0   0   0   0  0  0
 186  0  5   0   0   0  0  0
 187  3  0   0   0   0  0  0
 188  0  5   0   0   0  0  0
 189  3  0   0   0   0  0  0
 190  0  5   0   0   0  0  0
 191  3  0   0   0   0  0  0
 192  0  5   0   0   0  0  0
 193  3  0   0   0   0  0  0
 194  0  5   0   0   0  0  0
 195  3  0   0   0   0  0  0
 196  0  5   0   0   0  0  0
 197  3  0   0   0   0  0  0
 198  0  5   0   0   0  0  0
 199  3  0   0   0   0  0  0
 200  0  5   0   0   0  0  0
 201  3  0   0   0   0  0  0
 202  0  5   0   0   0  0  0
 203  3  0   0   0   0  0  0
 204  0  5   0   0   0  0  0
 205  3  0   0   0   0  0  0
 206  0  5   0   0   0  0  0
 207  3  0   0   0   0  0  0
 208  0  5   0   0   0  0  0
 209  3  0   0   0   0  0  0
 210  0  5   0   0   0  0  0
 211  0  0   1   1   1  0  0
 212  0  0   0   0   0  1  0
 213  2  0   0   0   0  0  0
 214  0  6   0   0   0  0  0
 215  3  0   0   0   0  0  0
 216  0  6   0   0   0  0  0
 217  3  0   0   0   0  0  0
 218  0  6   0   0   0  0  0
 219  3  0   0   0   0  0  0
 220  0  6   0   0   0  0  0
 221  3  0   0   0   0  0  0
 222  0  6   0   0   0  0  0
 223  3  0   0   0   0  0  0
 224  0  6   0   0   0  0  0
 225  3  0   0   0   0  0  0
 226  0  6   0   0   0  0  0
 227  3  0   0   0   0  0  0
 228  0  6   0   0   0  0  0
 229  3  0   0   0   0  0  0
 230  0  6   0   0   0  0  0
 231  3  0   0   0   0  0  0
 232  0  6   0   0   0  0  0
 233  3  0   0   0   0  0  0
 234  0  6   0   0   0  0  0
 235  3  0   0   0   0  0  0
 236  0  6   0   0   0  0  0
 237  3  0   0   0   0  0  0
 238  0  6   0   0   0  0  0
 239  3  0   0   0   0  0  0
 240  0  6   0   0   0  0  0
 241  3  0   0   0   0  0  0
 242  0  6   0   0   0  0  0
 243  3  0   0   0   0  0  0
 244  0  6   0   0   0  0  0
 245  3  0   0   0   0  0  0
 246  0  6   0   0   0  0  0
 247  3  0   0   0   0  0  0
 248  0  6   0   0   0  0  0
 249  3  0   0   0   0  0  0
 250  0  6   0   0   0  0  0
 251  3  0   0   0   0  0  0
 252  0  6   0   0   0  0  0
 253  0  0   1   1   1  0  0
 254  0  0   0   0   0  1  0
 255  2  0   0   0   0  0  0
 256  0  7   0   0   0  0  0
 257  3  0   0   0   0  0  0
 258  0  7   0   0   0  0  0
 259  3  0   0   0   0  0  0
 260  0  7   0   0   0  0  0
 261  3  0   0   0   0  0  0
 262  0  7   0   0   0  0  0
 263  3  0   0   0   0  0  0
 264  0  7   0   0   0  0  0
 265  3  0   0   0   0  0  0
 266  0  7   0   0   0  0  0
 267  3  0   0   0   0  0  0
 268  0  7   0   0   0  0  0
 269  3  0   0   0   0  0  0
 270  0  7   0   0   0  0  0
 271  3  0   0   0   0  0  0
 272  0  7   0   0   0  0  0
 273  3  0   0   0   0  0  0
 274  0  7   0   0   0  0  0
 275  3  0   0   0   0  0  0
 276  0  7   0   0   0  0  0
 277  3  0   0   0   0  0  0
 278  0  7   0   0   0  0  0
 279  3  0   0   0   0  0  0
 280  0  7   0   0   0  0  0
 281  3  0   0   0   0  0  0
 282  0  7   0   0   0  0  0
 283  3  0   0   0   0  0  0
 284  0  7   0   0   0  0  0
 285  3  0   0   0   0  0  0
 286  0  7   0   0   0  0  0
 287  3  0   0   0   0  0  0
 288  0  7   0   0   0  0  0
 289  3  0   0   0   0  0  0
 290  0  7   0   0   0  0  0
 291  3  0   0   0   0  0  0
 292  0  7   0   0   0  0  0
 293  3  0   0   0   0  0  0
 294  0  7   0   0   0  0  0
 295  0  0   1   1   1  0  0
 296  0  0   0   0   0  1  0
 297  2  0   0   0   0  0  0
 298  0  8   0   0   0  0  0
 299  3  0   0   0   0  0  0
 300  0  8   0   0   0  0  0
 301  3  0   0   0   0  0  0
 302  0  8   0   0   0  0  0
 303  3  0   0   0   0  0  0
 304  0  8   0   0   0  0  0
 305  3  0   0   0   0  0  0
 306  0  8   0   0   0  0  0
 307  3  0   0   0   0  0  0
 308  0  8   0   0   0  0  0
 309  3  0   0   0   0  0  0
 310  0  8   0   0   0  0  0
 311  3  0   0   0   0  0  0
 312  0  8   0   0   0  0  0
 313  3  0   0   0   0  0  0
 314  0  8   0   0   0  0  0
 315  3  0   0   0   0  0  0
 316  0  8   0   0   0  0  0
 317  3  0   0   0   0  0  0
 318  0  8   0   0   0  0  0
 319  3  0   0   0   0  0  0
 320  0  8   0   0   0  0  0
 321  3  0   0   0   0  0  0
 322  0  8   0   0   0  0  0
 323  3  0   0   0   0  0  0
 324  0  8   0   0   0  0  0
 325  3  0   0   0   0  0  0
 326  0  8   0   0   0  0  0
[RF]
1      283.607 1 2 100 -1277.29 0
2      283.607 1 2 100 -1211.79 0
3      283.607 1 2 100 -1146.29 0
4      283.607 1 2 100 -1080.79 0
5      283.607 1 2 100 -1015.28 0
6      283.607 1 2 100 -949.781 0
7      283.607 1 2 100 -884.279 0
8      283.607 1 2 100 -818.777 0
9      283.607 1 2 100 -753.275 0
10      283.607 1 2 100 -687.773 0
11      283.607 1 2 100 -622.27 0
12      283.607 1 2 100 -556.768 0
13      283.607 1 2 100 -491.266 0
14      283.607 1 2 100 -425.764 0
15      283.607 1 2 100 -360.262 0
16      283.607 1 2 100 -294.76 0
17      283.607 1 2 100 -229.258 0
18      283.607 1 2 100 -163.755 0
19      283.607 1 2 100 -98.2532 0
20      283.607 1 2 100 -32.7511 0
21      283.607 1 2 100 32.7511 0
22      283.607 1 2 100 98.2532 0
23      283.607 1 2 100 163.755 0
24      283.607 1 2 100 229.258 0
25      283.607 1 2 100 294.76 0
26      283.607 1 2 100 360.262 0
27      283.607 1 2 100 425.764 0
28      283.607 1 2 100 491.266 0
29      283.607 1 2 100 556.768 0
30      283.607 1 2 100 622.27 0
31      283.607 1 2 100 687.773 0
32      283.607 1 2 100 753.275 0
33      283.607 1 2 100 818.777 0
34      283.607 1 2 100 884.279 0
35      283.607 1 2 100 949.781 0
36      283.607 1 2 100 1015.28 0
37      283.607 1 2 100 1080.79 0
38      283.607 1 2 100 1146.29 0
39      283.607 1 2 100 1211.79 0
40      283.607 1 2 100 1277.29 0

# Format of trapezoid gradients:
# id amplitude rise flat fall delay
# ..      Hz/m   us   us   us    us
[TRAP]
 1  1.36243e+06 250 4000 250   0

# Format of ADC events:
# id num dwell delay freq phase
# ..  ..    ns    us   Hz   rad
[ADC]
1 1 1000000 0 0 0

# Format of delays:
# id delay (us)
[DELAYS]
1 12000000
2 2400000
3 40000

# Sequence Shapes
[SHAPES]

shape_id 1
num_samples 50030
0.0008519
5e-07
5e-07
1
4e-07
5e-07
5e-07
3
4e-07
5e-07
5e-07
4
4e-07
5e-07
5e-07
5
4e-07
5e-07
5e-07
6
4e-07
5e-07
5e-07
9
4e-07
5e-07
5e-07
47
6e-07
5e-07
5e-07
10
6e-07
5e-07
5e-07
6
6e-07
5e-07
5e-07
4
6e-07
5e-07
5e-07
4
6e-07
5e-07
5e-07
3
6e-07
5e-07
5e-07
2
6e-07
5e-07
5e-07
2
6e-07
5e-07
5e-07
2
6e-07
5e-07
5e-07
1
6e-07
5e-07
5e-07
2
6e-07
5e-07
5e-07
1
6e-07
5e-07
5e-07
1
6e-07
5e-07
5e-07
0
6e-07
5e-07
5e-07
1
6e-07
5e-07
5e-07
0
6e-07
5e-07
5e-07
1
6e-07
5e-07
5e-07
0
6e-07
5e-07
5e-07
0
6e-07
5e-07
5e-07
0
6e-07
5e-07
5e-07
0
6e-07
5e-07
5e-07
0
6e-07
5e-07
5e-07
0
6e-07
5e-07
5e-07
0
6e-07
5e-07
5e-07
0
6e-07
5e-07
6e-07
5e-07
5e-07
0
6e-07
5e-07
5e-07
0
6e-07
5e-07
6e-07
5e-07
5e-07
0
6e-07
5e-07
6e-07
5e-07
6e-07
5e-07
5e-07
0
6e-07
5e-07
6e-07
5e-07
6e-07
5e-07
5e-07
0
6e-07
5e-07
6e-07
5e-07
6e-07
5e-07
6e-07
5e-07
6e-07
5e-07
5e-07
0
6e-07
5e-07
6e-07
5e-07
6e-07
5e-07
6e-07
5e-07
6e-07
5e-07
6e-07
5e-07
6e-07
5e-07
6e-07
5e-07
6e-07
5e-07
6e-07
6e-07
0
5e-07
6e-07
5e-07
6e-07
5e-07
6e-07
5e-07
6e-07
5e-07
6e-07
6e-07
0
5e-07
6e-07
5e-07
6e-07
5e-07
6e-07
6e-07
0
5e-07
6e-07
5e-07
6e-07
6e-07
0
5e-07
6e-07
5e-07
6e-07
6e-07
0
5e-07
6e-07
5e-07
6e-07
6e-07
0
5e-07
6e-07
6e-07
0
5e-07
6e-07
5e-07
6e-07
6e-07
0
5e-07
6e-07
6e-07
0
5e-07
6e-07
6e-07
0
5e-07
6e-07
6e-07
0
5e-07
6e-07
6e-07
1
5e-07
6e-07
6e-07
0
5e-07
6e-07
6e-07
0
5e-07
6e-07
6e-07
1
5e-07
6e-07
6e-07
0
5e-07
6e-07
6e-07
1
5e-07
6e-07
6e-07
1
5e-07
6e-07
6e-07
1
5e-07
6e-07
6e-07
2
5e-07
6e-07
6e-07
1
5e-07
6e-07
6e-07
2
5e-07
6e-07
6e-07
3
5e-07
6e-07
6e-07
3
5e-07
6e-07
6e-07
3
5e-07
6e-07
6e-07
5
5e-07
6e-07
6e-07
8
5e-07
6e-07
6e-07
15
5e-07
6e-07
6e-07
14
7e-07
6e-07
6e-07
15
7e-07
6e-07
6e-07
7
7e-07
6e-07
6e-07
5
7e-07
6e-07
6e-07
4
7e-07
6e-07
6e-07
3
7e-07
6e-07
6e-07
2
7e-07
6e-07
6e-07
2
7e-07
6e-07
6e-07
1
7e-07
6e-07
6e-07
2
7e-07
6e-07
6e-07
1
7e-07
6e-07
6e-07
1
7e-07
6e-07
6e-07
0
7e-07
6e-07
6e-07
1
7e-07
6e-07
6e-07
0
7e-07
6e-07
6e-07
1
7e-07
6e-07
6e-07
0
7e-07
6e-07
6e-07
0
7e-07
6e-07
6e-07
0
7e-07
6e-07
6e-07
0
7e-07
6e-07
7e-07
6e-07
6e-07
0
7e-07
6e-07
6e-07
0
7e-07
6e-07
6e-07
0
7e-07
6e-07
7e-07
6e-07
6e-07
0
7e-07
6e-07
7e-07
6e-07
7e-07
6e-07
6e-07
0
7e-07
6e-07
7e-07
6e-07
7e-07
6e-07
6e-07
0
7e-07
6e-07
7e-07
6e-07
7e-07
6e-07
7e-07
6e-07
7e-07
6e-07
7e-07
6e-07
6e-07
0
7e-07
6e-07
7e-07
6e-07
7e-07
6e-07
7e-07
7e-07
0
6e-07
7e-07
6e-07
7e-07
6e-07
7e-07
6e-07
7e-07
6e-07
7e-07
6e-07
7e-07
7e-07
0
6e-07
7e-07
6e-07
7e-07
6e-07
7e-07
7e-07
0
6e-07
7e-07
6e-07
7e-07
6e-07
7e-07
7e-07
0
6e-07
7e-07
7e-07
0
6e-07
7e-07
6e-07
7e-07
7e-07
0
6e-07
7e-07
7e-07
0
6e-07
7e-07
7e-07
0
6e-07
7e-07
7e-07
0
6e-07
7e-07
7e-07
0
6e-07
7e-07
7e-07
0
6e-07
7e-07
7e-07
0
6e-07
7e-07
7e-07
0
6e-07
7e-07
7e-07
1
6e-07
7e-07
7e-07
1
6e-07
7e-07
7e-07
0
6e-07
7e-07
7e-07
1
6e-07
7e-07
7e-07
2
6e-07
7e-07
7e-07
1
6e-07
7e-07
7e-07
2
6e-07
7e-07
7e-07
3
6e-07
7e-07
7e-07
3
6e-07
7e-07
7e-07
4
6e-07
7e-07
7e-07
7
6e-07
7e-07
7e-07
12
6e-07
7e-07
7e-07
18
8e-07
7e-07
7e-07
13
8e-07
7e-07
7e-07
6
8e-07
7e-07
7e-07
4
8e-07
7e-07
7e-07
3
8e-07
7e-07
7e-07
3
8e-07
7e-07
7e-07
2
8e-07
7e-07
7e-07
1
8e-07
7e-07
7e-07
1
8e-07
7e-07
7e-07
1
8e-07
7e-07
7e-07
1
8e-07
7e-07
7e-07
1
8e-07
7e-07
7e-07
0
8e-07
7e-07
7e-07
0
8e-07
7e-07
7e-07
1
8e-07
7e-07
7e-07
0
8e-07
7e-07
7e-07
0
8e-07
7e-07
8e-07
7e-07
7e-07
0
8e-07
7e-07
7e-07
0
8e-07
7e-07
8e-07
7e-07
7e-07
0
8e-07
7e-07
7e-07
0
8e-07
7e-07
8e-07
7e-07
8e-07
7e-07
7e-07
0
8e-07
7e-07
8e-07
7e-07
8e-07
7e-07
8e-07
7e-07
7e-07
0
8e-07
7e-07
8e-07
7e-07
8e-07
7e-07
8e-07
7e-07
8e-07
7e-07
8e-07
7e-07
8e-07
7e-07
8e-07
7e-07
8e-07
7e-07
8e-07
7e-07
8e-07
8e-07
0
7e-07
8e-07
7e-07
8e-07
7e-07
8e-07
7e-07
8e-07
8e-07
0
7e-07
8e-07
7e-07
8e-07
8e-07
0
7e-07
8e-07
7e-07
8e-07
8e-07
0
7e-07
8e-07
8e-07
0
7e-07
8e-07
7e-07
8e-07
8e-07
0
7e-07
8e-07
8e-07
0
7e-07
8e-07
8e-07
0
7e-07
8e-07
8e-07
0
7e-07
8e-07
8e-07
1
7e-07
8e-07
8e-07
0
7e-07
8e-07
8e-07
1
7e-07
8e-07
8e-07
0
7e-07
8e-07
8e-07
1
7e-07
8e-07
8e-07
2
7e-07
8e-07
8e-07
1
7e-07
8e-07
8e-07
2
7e-07
8e-07
8e-07
3
7e-07
8e-07
8e-07
4
7e-07
8e-07
8e-07
5
7e-07
8e-07
8e-07
9
7e-07
8e-07
8e-07
25
9e-07
8e-07
8e-07
10
9e-07
8e-07
8e-07
5
9e-07
8e-07
8e-07
3
9e-07
8e-07
8e-07
3
9e-07
8e-07
8e-07
2
9e-07
8e-07
8e-07
2
9e-07
8e-07
8e-07
1
9e-07
8e-07
8e-07
1
9e-07
8e-07
8e-07
0
9e-07
8e-07
8e-07
1
9e-07
8e-07
8e-07
0
9e-07
8e-07
8e-07
0
9e-07
8e-07
8e-07
1
9e-07
8e-07
8e-07
0
9e-07
8e-07
9e-07
8e-07
8e-07
0
9e-07
8e-07
8e-07
0
9e-07
8e-07
9e-07
8e-07
8e-07
0
9e-07
8e-07
9e-07
8e-07
8e-07
0
9e-07
8e-07
9e-07
8e-07
9e-07
8e-07
8e-07
0
9e-07
8e-07
9e-07
8e-07
9e-07
8e-07
9e-07
8e-07
9e-07
8e-07
9e-07
8e-07
9e-07
8e-07
9e-07
8e-07
9e-07
8e-07
9e-07
8e-07
9e-07
8e-07
9e-07
8e-07
9e-07
9e-07
0
8e-07
9e-07
8e-07
9e-07
8e-07
9e-07
9e-07
0
8e-07
9e-07
8e-07
9e-07
9e-07
0
8e-07
9e-07
8e-07
9e-07
9e-07
0
8e-07
9e-07
9e-07
0
8e-07
9e-07
9e-07
0
8e-07
9e-07
8e-07
9e-07
9e-07
1
8e-07
9e-07
9e-07
0
8e-07
9e-07
9e-07
0
8e-07
9e-07
9e-07
1
8e-07
9e-07
9e-07
1
8e-07
9e-07
9e-07
1
8e-07
9e-07
9e-07
1
8e-07
9e-07
9e-07
2
8e-07
9e-07
9e-07
2
8e-07
9e-07
9e-07
3
8e-07
9e-07
9e-07
5
8e-07
9e-07
9e-07
9
8e-07
9e-07
9e-07
24
1e-06
9e-07
9e-07
9
1e-06
9e-07
9e-07
4
1e-06
9e-07
9e-07
4
1e-06
9e-07
9e-07
2
1e-06
9e-07
9e-07
2
1e-06
9e-07
9e-07
1
1e-06
9e-07
9e-07
1
1e-06
9e-07
9e-07
1
1e-06
9e-07
9e-07
0
1e-06
9e-07
9e-07
1
1e-06
9e-07
9e-07
0
1e-06
9e-07
9e-07
0
1e-06
9e-07
9e-07
0
1e-06
9e-07
9e-07
0
1e-06
9e-07
1e-06
9e-07
9e-07
0
1e-06
9e-07
1e-06
9e-07
9e-07
0
1e-06
9e-07
1e-06
9e-07
9e-07
0
1e-06
9e-07
1e-06
9e-07
1e-06
9e-07
1e-06
9e-07
1e-06
9e-07
1e-06
9e-07
9e-07
0
1e-06
9e-07
1e-06
9e-07
1e-06
1e-06
0
9e-07
1e-06
9e-07
1e-06
9e-07
1e-06
9e-07
1e-06
9e-07
1e-06
1e-06
0
9e-07
1e-06
9e-07
1e-06
9e-07
1e-06
1e-06
0
9e-07
1e-06
1e-06
0
9e-07
1e-06
9e-07
1e-06
1e-06
0
9e-07
1e-06
1e-06
0
9e-07
1e-06
1e-06
0
9e-07
1e-06
1e-06
0
9e-07
1e-06
1e-06
0
9e-07
1e-06
1e-06
1
9e-07
1e-06
1e-06
1
9e-07
1e-06
1e-06
1
9e-07
1e-06
1e-06
1
9e-07
1e-06
1e-06
2
9e-07
1e-06
1e-06
2
9e-07
1e-06
1e-06
4
9e-07
1e-06
1e-06
5
9e-07
1e-06
1e-06
15
9e-07
1e-06
1e-06
1
1.1e-06
1e-06
1e-06
15
1.1e-06
1e-06
1e-06
6
1.1e-06
1e-06
1e-06
3
1.1e-06
1e-06
1e-06
3
1.1e-06
1e-06
1e-06
1
1.1e-06
1e-06
1e-06
2
1.1e-06
1e-06
1e-06
0
1.1e-06
1e-06
1e-06
1
1.1e-06
1e-06
1e-06
1
1.1e-06
1e-06
1e-06
0
1.1e-06
1e-06
1e-06
0
1.1e-06
1e-06
1e-06
0
1.1e-06
1e-06
1e-06
0
1.1e-06
1e-06
1.1e-06
1e-06
1e-06
0
1.1e-06
1e-06
1e-06
0
1.1e-06
1e-06
1.1e-06
1e-06
1.1e-06
1e-06
1e-06
0
1.1e-06
1e-06
1.1e-06
1e-06
1.1e-06
1e-06
1.1e-06
1e-06
1.1e-06
1e-06
1.1e-06
1e-06
1.1e-06
1e-06
1.1e-06
1e-06
1.1e-06
1e-06
1.1e-06
1e-06
1.1e-06
1e-06
1.1e-06
1e-06
1.1e-06
1e-06
1.1e-06
1.1e-06
0
1e-06
1.1e-06
1e-06
1.1e-06
1.1e-06
0
1e-06
1.1e-06
1e-06
1.1e-06
1.1e-06
0
1e-06
1.1e-06
1.1e-06
0
1e-06
1.1e-06
1.1e-06
0
1e-06
1.1e-06
1.1e-06
0
1e-06
1.1e-06
1.1e-06
0
1e-06
1.1e-06
1.1e-06
0
1e-06
1.1e-06
1.1e-06
1
1e-06
1.1e-06
1.1e-06
1
1e-06
1.1e-06
1.1e-06
1
1e-06
1.1e-06
1.1e-06
2
1e-06
1.1e-06
1.1e-06
2
1e-06
1.1e-06
1.1e-06
4
1e-06
1.1e-06
1.1e-06
6
1e-06
1.1e-06
1.1e-06
30
1.2e-06
1.1e-06
1.1e-06
6
1.2e-06
1.1e-06
1.1e-06
4
1.2e-06
1.1e-06
1.1e-06
2
1.2e-06
1.1e-06
1.1e-06
2
1.2e-06
1.1e-06
1.1e-06
1
1.2e-06
1.1e-06
1.1e-06
1
1.2e-06
1.1e-06
1.1e-06
0
1.2e-06
1.1e-06
1.1e-06
0
1.2e-06
1.1e-06
1.1e-06
1
1.2e-06
1.1e-06
1.1e-06
0
1.2e-06
1.1e-06
1.2e-06
1.1e-06
1.1e-06
0
1.2e-06
1.1e-06
1.1e-06
0
1.2e-06
1.1e-06
1.2e-06
1.1e-06
1.1e-06
0
1.2e-06
1.1e-06
1.2e-06
1.1e-06
1.1e-06
0
1.2e-06
1.1e-06
1.2e-06
1.1e-06
1.2e-06
1.1e-06
1.2e-06
1.1e-06
1.2e-06
1.1e-06
1.2e-06
1.1e-06
1.2e-06
1.1e-06
1.2e-06
1.1e-06
1.2e-06
1.1e-06
1.2e-06
1.1e-06
1.2e-06
1.2e-06
0
1.1e-06
1.2e-06
1.1e-06
1.2e-06
1.1e-06
1.2e-06
1.2e-06
0
1.1e-06
1.2e-06
1.1e-06
1.2e-06
1.2e-06
0
1.1e-06
1.2e-06
1.2e-06
0
1.1e-06
1.2e-06
1.2e-06
0
1.1e-06
1.2e-06
1.2e-06
0
1.1e-06
1.2e-06
1.2e-06
0
1.1e-06
1.2e-06
1.2e-06
0
1.1e-06
1.2e-06
1.2e-06
1
1.1e-06
1.2e-06
1.2e-06
1
1.1e-06
1.2e-06
1.2e-06
2
1.1e-06
1.2e-06
1.2e-06
2
1.1e-06
1.2e-06
1.2e-06
3
1.1e-06
1.2e-06
1.2e-06
5
1.1e-06
1.2e-06
1.2e-06
32
1.3e-06
1.2e-06
1.2e-06
5
1.3e-06
1.2e-06
1.2e-06
3
1.3e-06
1.2e-06
1.2e-06
2
1.3e-06
1.2e-06
1.2e-06
1
1.3e-06
1.2e-06
1.2e-06
1
1.3e-06
1.2e-06
1.2e-06
1
1.3e-06
1.2e-06
1.2e-06
0
1.3e-06
1.2e-06
1.2e-06
1
1.3e-06
1.2e-06
1.2e-06
0
1.3e-06
1.2e-06
1.2e-06
0
1.3e-06
1.2e-06
1.3e-06
1.2e-06
1.2e-06
0
1.3e-06
1.2e-06
1.3e-06
1.2e-06
1.2e-06
0
1.3e-06
1.2e-06
1.3e-06
1.2e-06
1.3e-06
1.2e-06
1.2e-06
0
1.3e-06
1.2e-06
1.3e-06
1.2e-06
1.3e-06
1.2e-06
1.3e-06
1.2e-06
1.3e-06
1.2e-06
1.3e-06
1.2e-06
1.3e-06
1.2e-06
1.3e-06
1.3e-06
0
1.2e-06
1.3e-06
1.2e-06
1.3e-06
1.2e-06
1.3e-06
1.3e-06
0
1.2e-06
1.3e-06
1.2e-06
1.3e-06
1.3e-06
0
1.2e-06
1.3e-06
1.3e-06
0
1.2e-06
1.3e-06
1.2e-06
1.3e-06
1.3e-06
0
1.2e-06
1.3e-06
1.3e-06
1
1.2e-06
1.3e-06
1.3e-06
0
1.2e-06
1.3e-06
1.3e-06
1
1.2e-06
1.3e-06
1.3e-06
1
1.2e-06
1.3e-06
1.3e-06
2
1.2e-06
1.3e-06
1.3e-06
2
1.2e-06
1.3e-06
1.3e-06
4
1.2e-06
1.3e-06
1.3e-06
7
1.2e-06
1.3e-06
1.3e-06
17
1.4e-06
1.3e-06
1.3e-06
8
1.4e-06
1.3e-06
1.3e-06
4
1.4e-06
1.3e-06
1.3e-06
2
1.4e-06
1.3e-06
1.3e-06
2
1.4e-06
1.3e-06
1.3e-06
1
1.4e-06
1.3e-06
1.3e-06
0
1.4e-06
1.3e-06
1.3e-06
1
1.4e-06
1.3e-06
1.3e-06
0
1.4e-06
1.3e-06
1.3e-06
0
1.4e-06
1.3e-06
1.3e-06
0
1.4e-06
1.3e-06
1.3e-06
0
1.4e-06
1.3e-06
1.4e-06
1.3e-06
1.3e-06
0
1.4e-06
1.3e-06
1.4e-06
1.3e-06
1.4e-06
1.3e-06
1.3e-06
0
1.4e-06
1.3e-06
1.4e-06
1.3e-06
1.4e-06
1.3e-06
1.4e-06
1.3e-06
1.4e-06
1.3e-06
1.4e-06
1.3e-06
1.4e-06
1.3e-06
1.4e-06
1.4e-06
0
1.3e-06
1.4e-06
1.3e-06
1.4e-06
1.3e-06
1.4e-06
1.4e-06
0
1.3e-06
1.4e-06
1.3e-06
1.4e-06
1.4e-06
0
1.3e-06
1.4e-06
1.4e-06
0
1.3e-06
1.4e-06
1.4e-06
0
1.3e-06
1.4e-06
1.4e-06
0
1.3e-06
1.4e-06
1.4e-06
0
1.3e-06
1.4e-06
1.4e-06
1
1.3e-06
1.4e-06
1.4e-06
1
1.3e-06
1.4e-06
1.4e-06
2
1.3e-06
1.4e-06
1.4e-06
2
1.3e-06
1.4e-06
1.4e-06
4
1.3e-06
1.4e-06
1.4e-06
11
1.3e-06
1.4e-06
1.4e-06
6
1.5e-06
1.4e-06
1.4e-06
10
1.5e-06
1.4e-06
1.4e-06
4
1.5e-06
1.4e-06
1.4e-06
3
1.5e-06
1.4e-06
1.4e-06
1
1.5e-06
1.4e-06
1.4e-06
1
1.5e-06
1.4e-06
1.4e-06
1
1.5e-06
1.4e-06
1.4e-06
0
1.5e-06
1.4e-06
1.4e-06
1
1.5e-06
1.4e-06
1.5e-06
1.4e-06
1.4e-06
0
1.5e-06
1.4e-06
1.4e-06
0
1.5e-06
1.4e-06
1.5e-06
1.4e-06
1.4e-06
0
1.5e-06
1.4e-06
1.5e-06
1.4e-06
1.5e-06
1.4e-06
1.4e-06
0
1.5e-06
1.4e-06
1.5e-06
1.4e-06
1.5e-06
1.4e-06
1.5e-06
1.4e-06
1.5e-06
1.4e-06
1.5e-06
1.5e-06
0
1.4e-06
1.5e-06
1.4e-06
1.5e-06
1.4e-06
1.5e-06
1.5e-06
0
1.4e-06
1.5e-06
1.4e-06
1.5e-06
1.5e-06
0
1.4e-06
1.5e-06
1.4e-06
1.5e-06
1.5e-06
0
1.4e-06
1.5e-06
1.5e-06
1
1.4e-06
1.5e-06
1.5e-06
0
1.4e-06
1.5e-06
1.5e-06
1
1.4e-06
1.5e-06
1.5e-06
1
1.4e-06
1.5e-06
1.5e-06
1
1.4e-06
1.5e-06
1.5e-06
3
1.4e-06
1.5e-06
1.5e-06
4
1.4e-06
1.5e-06
1.5e-06
28
1.6e-06
1.5e-06
1.5e-06
4
1.6e-06
1.5e-06
1.5e-06
3
1.6e-06
1.5e-06
1.5e-06
1
1.6e-06
1.5e-06
1.5e-06
1
1.6e-06
1.5e-06
1.5e-06
1
1.6e-06
1.5e-06
1.5e-06
0
1.6e-06
1.5e-06
1.5e-06
1
1.6e-06
1.5e-06
1.6e-06
1.5e-06
1.5e-06
0
1.6e-06
1.5e-06
1.5e-06
0
1.6e-06
1.5e-06
1.6e-06
1.5e-06
1.5e-06
0
1.6e-06
1.5e-06
1.6e-06
1.5e-06
1.6e-06
1.5e-06
1.6e-06
1.5e-06
1.6e-06
1.5e-06
1.6e-06
1.5e-06
1.6e-06
1.5e-06
1.6e-06
1.5e-06
1.6e-06
1.5e-06
1.6e-06
1.5e-06
1.6e-06
1.6e-06
0
1.5e-06
1.6e-06
1.5e-06
1.6e-06
1.6e-06
0
1.5e-06
1.6e-06
1.6e-06
0
1.5e-06
1.6e-06
1.5e-06
1.6e-06
1.6e-06
1
1.5e-06
1.6e-06
1.6e-06
0
1.5e-06
1.6e-06
1.6e-06
1
1.5e-06
1.6e-06
1.6e-06
1
1.5e-06
1.6e-06
1.6e-06
1
1.5e-06
1.6e-06
1.6e-06
3
1.5e-06
1.6e-06
1.6e-06
5
1.5e-06
1.6e-06
1.6e-06
21
1.7e-06
1.6e-06
1.6e-06
6
1.7e-06
1.6e-06
1.6e-06
3
1.7e-06
1.6e-06
1.6e-06
1
1.7e-06
1.6e-06
1.6e-06
1
1.7e-06
1.6e-06
1.6e-06
1
1.7e-06
1.6e-06
1.6e-06
0
1.7e-06
1.6e-06
1.6e-06
0
1.7e-06
1.6e-06
1.6e-06
0
1.7e-06
1.6e-06
1.6e-06
0
1.7e-06
1.6e-06
1.7e-06
1.6e-06
1.6e-06
0
1.7e-06
1.6e-06
1.7e-06
1.6e-06
1.7e-06
1.6e-06
1.6e-06
0
1.7e-06
1.6e-06
1.7e-06
1.6e-06
1.7e-06
1.6e-06
1.7e-06
1.6e-06
1.7e-06
1.6e-06
1.7e-06
1.7e-06
0
1.6e-06
1.7e-06
1.6e-06
1.7e-06
1.7e-06
0
1.6e-06
1.7e-06
1.6e-06
1.7e-06
1.7e-06
0
1.6e-06
1.7e-06
1.7e-06
0
1.6e-06
1.7e-06
1.7e-06
0
1.6e-06
1.7e-06
1.7e-06
0
1.6e-06
1.7e-06
1.7e-06
1
1.6e-06
1.7e-06
1.7e-06
1
1.6e-06
1.7e-06
1.7e-06
2
1.6e-06
1.7e-06
1.7e-06
2
1.6e-06
1.7e-06
1.7e-06
7
1.6e-06
1.7e-06
1.7e-06
15
1.8e-06
1.7e-06
1.7e-06
6
1.8e-06
1.7e-06
1.7e-06
3
1.8e-06
1.7e-06
1.7e-06
2
1.8e-06
1.7e-06
1.7e-06
1
1.8e-06
1.7e-06
1.7e-06
1
1.8e-06
1.7e-06
1.7e-06
0
1.8e-06
1.7e-06
1.7e-06
0
1.8e-06
1.7e-06
1.7e-06
0
1.8e-06
1.7e-06
1.8e-06
1.7e-06
1.7e-06
0
1.8e-06
1.7e-06
1.8e-06
1.7e-06
1.7e-06
0
1.8e-06
1.7e-06
1.8e-06
1.7e-06
1.8e-06
1.7e-06
1.8e-06
1.7e-06
1.8e-06
1.7e-06
1.8e-06
1.7e-06
1.8e-06
1.7e-06
1.8e-06
1.8e-06
0
1.7e-06
1.8e-06
1.7e-06
1.8e-06
1.7e-06
1.8e-06
1.8e-06
0
1.7e-06
1.8e-06
1.8e-06
0
1.7e-06
1.8e-06
1.8e-06
0
1.7e-06
1.8e-06
1.8e-06
0
1.7e-06
1.8e-06
1.8e-06
1
1.7e-06
1.8e-06
1.8e-06
1
1.7e-06
1.8e-06
1.8e-06
2
1.7e-06
1.8e-06
1.8e-06
3
1.7e-06
1.8e-06
1.8e-06
7
1.7e-06
1.8e-06
1.8e-06
10
1.9e-06
1.8e-06
1.8e-06
8
1.9e-06
1.8e-06
1.8e-06
3
1.9e-06
1.8e-06
1.8e-06
1
1.9e-06
1.8e-06
1.8e-06
1
1.9e-06
1.8e-06
1.8e-06
1
1.9e-06
1.8e-06
1.8e-06
0
1.9e-06
1.8e-06
1.8e-06
0
1.9e-06
1.8e-06
1.8e-06
0
1.9e-06
1.8e-06
1.8e-06
0
1.9e-06
1.8e-06
1.9e-06
1.8e-06
1.8e-06
0
1.9e-06
1.8e-06
1.9e-06
1.8e-06
1.9e-06
1.8e-06
1.9e-06
1.8e-06
1.9e-06
1.8e-06
1.9e-06
1.8e-06
1.9e-06
1.8e-06
1.9e-06
1.9e-06
0
1.8e-06
1.9e-06
1.8e-06
1.9e-06
1.8e-06
1.9e-06
1.9e-06
0
1.8e-06
1.9e-06
1.9e-06
0
1.8e-06
1.9e-06
1.9e-06
0
1.8e-06
1.9e-06
1.9e-06
0
1.8e-06
1.9e-06
1.9e-06
1
1.8e-06
1.9e-06
1.9e-06
1
1.8e-06
1.9e-06
1.9e-06
2
1.8e-06
1.9e-06
1.9e-06
4
1.8e-06
1.9e-06
1.9e-06
24
2e-06
1.9e-06
1.9e-06
4
2e-06
1.9e-06
1.9e-06
2
2e-06
1.9e-06
1.9e-06
1
2e-06
1.9e-06
1.9e-06
1
2e-06
1.9e-06
1.9e-06
0
2e-06
1.9e-06
1.9e-06
0
2e-06
1.9e-06
1.9e-06
0
2e-06
1.9e-06
2e-06
1.9e-06
1.9e-06
0
2e-06
1.9e-06
2e-06
1.9e-06
1.9e-06
0
2e-06
1.9e-06
2e-06
1.9e-06
2e-06
1.9e-06
2e-06
1.9e-06
2e-06
1.9e-06
2e-06
2e-06
0
1.9e-06
2e-06
1.9e-06
2e-06
2e-06
0
1.9e-06
2e-06
1.9e-06
2e-06
2e-06
0
1.9e-06
2e-06
2e-06
0
1.9e-06
2e-06
2e-06
0
1.9e-06
2e-06
2e-06
1
1.9e-06
2e-06
2e-06
1
1.9e-06
2e-06
2e-06
2
1.9e-06
2e-06
2e-06
5
1.9e-06
2e-06
2e-06
19
2.1e-06
2e-06
2e-06
5
2.1e-06
2e-06
2e-06
2
2.1e-06
2e-06
2e-06
1
2.1e-06
2e-06
2e-06
1
2.1e-06
2e-06
2e-06
0
2.1e-06
2e-06
2e-06
0
2.1e-06
2e-06
2e-06
0
2.1e-06
2e-06
2.1e-06
2e-06
2e-06
0
2.1e-06
2e-06
2.1e-06
2e-06
2.1e-06
2e-06
2e-06
0
2.1e-06
2e-06
2.1e-06
2e-06
2.1e-06
2.1e-06
0
2e-06
2.1e-06
2e-06
2.1e-06
2e-06
2.1e-06
2.1e-06
0
2e-06
2.1e-06
2e-06
2.1e-06
2.1e-06
0
2e-06
2.1e-06
2.1e-06
0
2e-06
2.1e-06
2.1e-06
0
2e-06
2.1e-06
2.1e-06
1
2e-06
2.1e-06
2.1e-06
1
2e-06
2.1e-06
2.1e-06
3
2e-06
2.1e-06
2.1e-06
5
2e-06
2.1e-06
2.1e-06
15
2.2e-06
2.1e-06
2.1e-06
5
2.2e-06
2.1e-06
2.1e-06
2
2.2e-06
2.1e-06
2.1e-06
1
2.2e-06
2.1e-06
2.1e-06
1
2.2e-06
2.1e-06
2.1e-06
0
2.2e-06
2.1e-06
2.1e-06
0
2.2e-06
2.1e-06
2.1e-06
0
2.2e-06
2.1e-06
2.1e-06
0
2.2e-06
2.1e-06
2.2e-06
2.1e-06
2.2e-06
2.1e-06
2.1e-06
0
2.2e-06
2.1e-06
2.2e-06
2.1e-06
2.2e-06
2.1e-06
2.2e-06
2.1e-06
2.2e-06
2.2e-06
0
2.1e-06
2.2e-06
2.1e-06
2.2e-06
2.2e-06
0
2.1e-06
2.2e-06
2.1e-06
2.2e-06
2.2e-06
0
2.1e-06
2.2e-06
2.2e-06
0
2.1e-06
2.2e-06
2.2e-06
1
2.1e-06
2.2e-06
2.2e-06
1
2.1e-06
2.2e-06
2.2e-06
2
2.1e-06
2.2e-06
2.2e-06
4
2.1e-06
2.2e-06
2.2e-06
19
2.3e-06
2.2e-06
2.2e-06
4
2.3e-06
2.2e-06
2.2e-06
2
2.3e-06
2.2e-06
2.2e-06
1
2.3e-06
2.2e-06
2.2e-06
1
2.3e-06
2.2e-06
2.2e-06
0
2.3e-06
2.2e-06
2.2e-06
0
2.3e-06
2.2e-06
2.3e-06
2.2e-06
2.2e-06
0
2.3e-06
2.2e-06
2.3e-06
2.2e-06
2.3e-06
2.2e-06
2.3e-06
2.2e-06
2.3e-06
2.2e-06
2.3e-06
2.2e-06
2.3e-06
2.2e-06
2.3e-06
2.2e-06
2.3e-06
2.2e-06
2.3e-06
2.3e-06
0
2.2e-06
2.3e-06
2.3e-06
0
2.2e-06
2.3e-06
2.3e-06
0
2.2e-06
2.3e-06
2.3e-06
0
2.2e-06
2.3e-06
2.3e-06
1
2.2e-06
2.3e-06
2.3e-06
1
2.2e-06
2.3e-06
2.3e-06
3
2.2e-06
2.3e-06
2.3e-06
8
2.2e-06
2.3e-06
2.3e-06
4
2.4e-06
2.3e-06
2.3e-06
8
2.4e-06
2.3e-06
2.3e-06
2
2.4e-06
2.3e-06
2.3e-06
2
2.4e-06
2.3e-06
2.3e-06
0
2.4e-06
2.3e-06
2.3e-06
1
2.4e-06
2.3e-06
2.4e-06
2.3e-06
2.3e-06
0
2.4e-06
2.3e-06
2.3e-06
0
2.4e-06
2.3e-06
2.4e-06
2.3e-06
2.4e-06
2.3e-06
2.4e-06
2.3e-06
2.3e-06
0
2.4e-06
2.4e-06
0
2.3e-06
2.4e-06
2.3e-06
2.4e-06
2.3e-06
2.4e-06
2.3e-06
2.4e-06
2.4e-06
0
2.3e-06
2.4e-06
2.4e-06
0
2.3e-06
2.4e-06
2.4e-06
0
2.3e-06
2.4e-06
2.4e-06
0
2.3e-06
2.4e-06
2.4e-06
1
2.3e-06
2.4e-06
2.4e-06
1
2.3e-06
2.4e-06
2.4e-06
3
2.3e-06
2.4e-06
2.4e-06
22
2.5e-06
2.4e-06
2.4e-06
3
2.5e-06
2.4e-06
2.4e-06
2
2.5e-06
2.4e-06
2.4e-06
0
2.5e-06
2.4e-06
2.4e-06
1
2.5e-06
2.4e-06
2.4e-06
0
2.5e-06
2.4e-06
2.5e-06
2.4e-06
2.4e-06
0
2.5e-06
2.4e-06
2.5e-06
2.4e-06
2.4e-06
0
2.5e-06
2.4e-06
2.5e-06
2.4e-06
2.5e-06
2.4e-06
2.5e-06
2.5e-06
0
2.4e-06
2.5e-06
2.4e-06
2.5e-06
2.4e-06
2.5e-06
2.5e-06
0
2.4e-06
2.5e-06
2.5e-06
0
2.4e-06
2.5e-06
2.5e-06
0
2.4e-06
2.5e-06
2.5e-06
0
2.4e-06
2.5e-06
2.5e-06
1
2.4e-06
2.5e-06
2.5e-06
2
2.4e-06
2.5e-06
2.5e-06
5
2.4e-06
2.5e-06
2.5e-06
13
2.6e-06
2.5e-06
2.5e-06
4
2.6e-06
2.5e-06
2.5e-06
2
2.6e-06
2.5e-06
2.5e-06
1
2.6e-06
2.5e-06
2.5e-06
1
2.6e-06
2.5e-06
2.5e-06
0
2.6e-06
2.5e-06
2.5e-06
0
2.6e-06
2.5e-06
2.6e-06
2.5e-06
2.5e-06
0
2.6e-06
2.5e-06
2.6e-06
2.5e-06
2.6e-06
2.5e-06
2.6e-06
2.5e-06
2.6e-06
2.5e-06
2.6e-06
2.5e-06
2.6e-06
2.6e-06
0
2.5e-06
2.6e-06
2.5e-06
2.6e-06
2.6e-06
0
2.5e-06
2.6e-06
2.6e-06
0
2.5e-06
2.6e-06
2.6e-06
0
2.5e-06
2.6e-06
2.6e-06
1
2.5e-06
2.6e-06
2.6e-06
2
2.5e-06
2.6e-06
2.6e-06
5
2.5e-06
2.6e-06
2.6e-06
13
2.7e-06
2.6e-06
2.6e-06
4
2.7e-06
2.6e-06
2.6e-06
2
2.7e-06
2.6e-06
2.6e-06
1
2.7e-06
2.6e-06
2.6e-06
0
2.7e-06
2.6e-06
2.6e-06
0
2.7e-06
2.6e-06
2.6e-06
0
2.7e-06
2.6e-06
2.7e-06
2.6e-06
2.6e-06
0
2.7e-06
2.6e-06
2.7e-06
2.6e-06
2.7e-06
2.6e-06
2.7e-06
2.6e-06
2.7e-06
2.6e-06
2.7e-06
2.6e-06
2.7e-06
2.7e-06
0
2.6e-06
2.7e-06
2.6e-06
2.7e-06
2.7e-06
0
2.6e-06
2.7e-06
2.7e-06
0
2.6e-06
2.7e-06
2.7e-06
1
2.6e-06
2.7e-06
2.7e-06
1
2.6e-06
2.7e-06
2.7e-06
3
2.6e-06
2.7e-06
2.7e-06
20
2.8e-06
2.7e-06
2.7e-06
3
2.8e-06
2.7e-06
2.7e-06
1
2.8e-06
2.7e-06
2.7e-06
1
2.8e-06
2.7e-06
2.7e-06
0
2.8e-06
2.7e-06
2.7e-06
0
2.8e-06
2.7e-06
2.7e-06
0
2.8e-06
2.7e-06
2.8e-06
2.7e-06
2.8e-06
2.7e-06
2.8e-06
2.7e-06
2.8e-06
2.7e-06
2.8e-06
2.7e-06
